t_us,score_t_us,latest_data_t_us,baseline_version,uses_future_data
8640542043,8640542043,8640542043,0,0
8640542043,8640542043,8661174047,0,1
8661174047,8661174047,8661174047,0,0
8640542043,8640542043,8681238047,0,1
8661174047,8661174047,8681238047,0,1
8681238047,8681238047,8681238047,0,0
8640542043,8640542043,8701894047,0,1
8661174047,8661174047,8701894047,0,1
8681238047,8681238047,8701894047,0,1
8701894047,8701894047,8701894047,0,0
8640542043,8640542043,8722574043,8661174047,1
8661174047,8661174047,8722574043,8661174047,1
8681238047,8681238047,8722574043,8661174047,1
8701894047,8701894047,8722574043,8661174047,1
8722574043,8722574043,8722574043,8661174047,0
8640542043,8640542043,8743246046,8661174047,1
8661174047,8661174047,8743246046,8661174047,1
8681238047,8681238047,8743246046,8661174047,1
8701894047,8701894047,8743246046,8661174047,1
8722574043,8722574043,8743246046,8661174047,1
8743246046,8743246046,8743246046,8661174047,0
8640542043,8640542043,8763758043,8661174047,1
8661174047,8661174047,8763758043,8661174047,1
8681238047,8681238047,8763758043,8661174047,1
8701894047,8701894047,8763758043,8661174047,1
8722574043,8722574043,8763758043,8661174047,1
8743246046,8743246046,8763758043,8661174047,1
8763758043,8763758043,8763758043,8661174047,0
8640542043,8640542043,8784110043,8661174047,1
8661174047,8661174047,8784110043,8661174047,1
8681238047,8681238047,8784110043,8661174047,1
8701894047,8701894047,8784110043,8661174047,1
8722574043,8722574043,8784110043,8661174047,1
8743246046,8743246046,8784110043,8661174047,1
8763758043,8763758043,8784110043,8661174047,1
8784110043,8784110043,8784110043,8661174047,0
8640542043,8640542043,8804358043,8661174047,1
8661174047,8661174047,8804358043,8661174047,1
8681238047,8681238047,8804358043,8661174047,1
8701894047,8701894047,8804358043,8661174047,1
8722574043,8722574043,8804358043,8661174047,1
8743246046,8743246046,8804358043,8661174047,1
8763758043,8763758043,8804358043,8661174047,1
8784110043,8784110043,8804358043,8661174047,1
8804358043,8804358043,8804358043,8661174047,0
8640542043,8640542043,8824926043,8661174047,1
8661174047,8661174047,8824926043,8661174047,1
8681238047,8681238047,8824926043,8661174047,1
8701894047,8701894047,8824926043,8661174047,1
8722574043,8722574043,8824926043,8661174047,1
8743246046,8743246046,8824926043,8661174047,1
8763758043,8763758043,8824926043,8661174047,1
8784110043,8784110043,8824926043,8661174047,1
8804358043,8804358043,8824926043,8661174047,1
8824926043,8824926043,8824926043,8661174047,0
8640542043,8640542043,8845478043,8784110043,1
8661174047,8661174047,8845478043,8784110043,1
8681238047,8681238047,8845478043,8784110043,1
8701894047,8701894047,8845478043,8784110043,1
8722574043,8722574043,8845478043,8784110043,1
8743246046,8743246046,8845478043,8784110043,1
8763758043,8763758043,8845478043,8784110043,1
8784110043,8784110043,8845478043,8784110043,1
8804358043,8804358043,8845478043,8784110043,1
8824926043,8824926043,8845478043,8784110043,1
8845478043,8845478043,8845478043,8784110043,0
8640542043,8640542043,8866102043,8784110043,1
8661174047,8661174047,8866102043,8784110043,1
8681238047,8681238047,8866102043,8784110043,1
8701894047,8701894047,8866102043,8784110043,1
8722574043,8722574043,8866102043,8784110043,1
8743246046,8743246046,8866102043,8784110043,1
8763758043,8763758043,8866102043,8784110043,1
8784110043,8784110043,8866102043,8784110043,1
8804358043,8804358043,8866102043,8784110043,1
8824926043,8824926043,8866102043,8784110043,1
8845478043,8845478043,8866102043,8784110043,1
8866102043,8866102043,8866102043,8784110043,0
8640542043,8640542043,8886766044,8784110043,1
8661174047,8661174047,8886766044,8784110043,1
8681238047,8681238047,8886766044,8784110043,1
8701894047,8701894047,8886766044,8784110043,1
8722574043,8722574043,8886766044,8784110043,1
8743246046,8743246046,8886766044,8784110043,1
8763758043,8763758043,8886766044,8784110043,1
8784110043,8784110043,8886766044,8784110043,1
8804358043,8804358043,8886766044,8784110043,1
8824926043,8824926043,8886766044,8784110043,1
8845478043,8845478043,8886766044,8784110043,1
8866102043,8866102043,8886766044,8784110043,1
8886766044,8886766044,8886766044,8784110043,0
8640542043,8640542043,8906998043,8784110043,1
8661174047,8661174047,8906998043,8784110043,1
8681238047,8681238047,8906998043,8784110043,1
8701894047,8701894047,8906998043,8784110043,1
8722574043,8722574043,8906998043,8784110043,1
8743246046,8743246046,8906998043,8784110043,1
8763758043,8763758043,8906998043,8784110043,1
8784110043,8784110043,8906998043,8784110043,1
8804358043,8804358043,8906998043,8784110043,1
8824926043,8824926043,8906998043,8784110043,1
8845478043,8845478043,8906998043,8784110043,1
8866102043,8866102043,8906998043,8784110043,1
8886766044,8886766044,8906998043,8784110043,1
8906998043,8906998043,8906998043,8784110043,0
8640542043,8640542043,8927310043,8784110043,1
8661174047,8661174047,8927310043,8784110043,1
8681238047,8681238047,8927310043,8784110043,1
8701894047,8701894047,8927310043,8784110043,1
8722574043,8722574043,8927310043,8784110043,1
8743246046,8743246046,8927310043,8784110043,1
8763758043,8763758043,8927310043,8784110043,1
8784110043,8784110043,8927310043,8784110043,1
8804358043,8804358043,8927310043,8784110043,1
8824926043,8824926043,8927310043,8784110043,1
8845478043,8845478043,8927310043,8784110043,1
8866102043,8866102043,8927310043,8784110043,1
8886766044,8886766044,8927310043,8784110043,1
8906998043,8906998043,8927310043,8784110043,1
8927310043,8927310043,8927310043,8784110043,0
8640542043,8640542043,8947990047,8784110043,1
8661174047,8661174047,8947990047,8784110043,1
8681238047,8681238047,8947990047,8784110043,1
8701894047,8701894047,8947990047,8784110043,1
8722574043,8722574043,8947990047,8784110043,1
8743246046,8743246046,8947990047,8784110043,1
8763758043,8763758043,8947990047,8784110043,1
8784110043,8784110043,8947990047,8784110043,1
8804358043,8804358043,8947990047,8784110043,1
8824926043,8824926043,8947990047,8784110043,1
8845478043,8845478043,8947990047,8784110043,1
8866102043,8866102043,8947990047,8784110043,1
8886766044,8886766044,8947990047,8784110043,1
8906998043,8906998043,8947990047,8784110043,1
8927310043,8927310043,8947990047,8784110043,1
8947990047,8947990047,8947990047,8784110043,0
8640542043,8640542043,8968326044,8906998043,1
8661174047,8661174047,8968326044,8906998043,1
8681238047,8681238047,8968326044,8906998043,1
8701894047,8701894047,8968326044,8906998043,1
8722574043,8722574043,8968326044,8906998043,1
8743246046,8743246046,8968326044,8906998043,1
8763758043,8763758043,8968326044,8906998043,1
8784110043,8784110043,8968326044,8906998043,1
8804358043,8804358043,8968326044,8906998043,1
8824926043,8824926043,8968326044,8906998043,1
8845478043,8845478043,8968326044,8906998043,1
8866102043,8866102043,8968326044,8906998043,1
8886766044,8886766044,8968326044,8906998043,1
8906998043,8906998043,8968326044,8906998043,1
8927310043,8927310043,8968326044,8906998043,1
8947990047,8947990047,8968326044,8906998043,1
8968326044,8968326044,8968326044,8906998043,0
8640542043,8640542043,8988606044,8906998043,1
8661174047,8661174047,8988606044,8906998043,1
8681238047,8681238047,8988606044,8906998043,1
8701894047,8701894047,8988606044,8906998043,1
8722574043,8722574043,8988606044,8906998043,1
8743246046,8743246046,8988606044,8906998043,1
8763758043,8763758043,8988606044,8906998043,1
8784110043,8784110043,8988606044,8906998043,1
8804358043,8804358043,8988606044,8906998043,1
8824926043,8824926043,8988606044,8906998043,1
8845478043,8845478043,8988606044,8906998043,1
8866102043,8866102043,8988606044,8906998043,1
8886766044,8886766044,8988606044,8906998043,1
8906998043,8906998043,8988606044,8906998043,1
8927310043,8927310043,8988606044,8906998043,1
8947990047,8947990047,8988606044,8906998043,1
8968326044,8968326044,8988606044,8906998043,1
8988606044,8988606044,8988606044,8906998043,0
8640542043,8640542043,9008750047,8906998043,1
8661174047,8661174047,9008750047,8906998043,1
8681238047,8681238047,9008750047,8906998043,1
8701894047,8701894047,9008750047,8906998043,1
8722574043,8722574043,9008750047,8906998043,1
8743246046,8743246046,9008750047,8906998043,1
8763758043,8763758043,9008750047,8906998043,1
8784110043,8784110043,9008750047,8906998043,1
8804358043,8804358043,9008750047,8906998043,1
8824926043,8824926043,9008750047,8906998043,1
8845478043,8845478043,9008750047,8906998043,1
8866102043,8866102043,9008750047,8906998043,1
8886766044,8886766044,9008750047,8906998043,1
8906998043,8906998043,9008750047,8906998043,1
8927310043,8927310043,9008750047,8906998043,1
8947990047,8947990047,9008750047,8906998043,1
8968326044,8968326044,9008750047,8906998043,1
8988606044,8988606044,9008750047,8906998043,1
9008750047,9008750047,9008750047,8906998043,0
8640542043,8640542043,9028822047,8906998043,1
8661174047,8661174047,9028822047,8906998043,1
8681238047,8681238047,9028822047,8906998043,1
8701894047,8701894047,9028822047,8906998043,1
8722574043,8722574043,9028822047,8906998043,1
8743246046,8743246046,9028822047,8906998043,1
8763758043,8763758043,9028822047,8906998043,1
8784110043,8784110043,9028822047,8906998043,1
8804358043,8804358043,9028822047,8906998043,1
8824926043,8824926043,9028822047,8906998043,1
8845478043,8845478043,9028822047,8906998043,1
8866102043,8866102043,9028822047,8906998043,1
8886766044,8886766044,9028822047,8906998043,1
8906998043,8906998043,9028822047,8906998043,1
8927310043,8927310043,9028822047,8906998043,1
8947990047,8947990047,9028822047,8906998043,1
8968326044,8968326044,9028822047,8906998043,1
8988606044,8988606044,9028822047,8906998043,1
9008750047,9008750047,9028822047,8906998043,1
9028822047,9028822047,9028822047,8906998043,0
8640542043,8640542043,9049062043,8906998043,1
8661174047,8661174047,9049062043,8906998043,1
8681238047,8681238047,9049062043,8906998043,1
8701894047,8701894047,9049062043,8906998043,1
8722574043,8722574043,9049062043,8906998043,1
8743246046,8743246046,9049062043,8906998043,1
8763758043,8763758043,9049062043,8906998043,1
8784110043,8784110043,9049062043,8906998043,1
8804358043,8804358043,9049062043,8906998043,1
8824926043,8824926043,9049062043,8906998043,1
8845478043,8845478043,9049062043,8906998043,1
8866102043,8866102043,9049062043,8906998043,1
8886766044,8886766044,9049062043,8906998043,1
8906998043,8906998043,9049062043,8906998043,1
8927310043,8927310043,9049062043,8906998043,1
8947990047,8947990047,9049062043,8906998043,1
8968326044,8968326044,9049062043,8906998043,1
8988606044,8988606044,9049062043,8906998043,1
9008750047,9008750047,9049062043,8906998043,1
9028822047,9028822047,9049062043,8906998043,1
9049062043,9049062043,9049062043,8906998043,0
8640542043,8640542043,9069326047,8906998043,1
8661174047,8661174047,9069326047,8906998043,1
8681238047,8681238047,9069326047,8906998043,1
8701894047,8701894047,9069326047,8906998043,1
8722574043,8722574043,9069326047,8906998043,1
8743246046,8743246046,9069326047,8906998043,1
8763758043,8763758043,9069326047,8906998043,1
8784110043,8784110043,9069326047,8906998043,1
8804358043,8804358043,9069326047,8906998043,1
8824926043,8824926043,9069326047,8906998043,1
8845478043,8845478043,9069326047,8906998043,1
8866102043,8866102043,9069326047,8906998043,1
8886766044,8886766044,9069326047,8906998043,1
8906998043,8906998043,9069326047,8906998043,1
8927310043,8927310043,9069326047,8906998043,1
8947990047,8947990047,9069326047,8906998043,1
8968326044,8968326044,9069326047,8906998043,1
8988606044,8988606044,9069326047,8906998043,1
9008750047,9008750047,9069326047,8906998043,1
9028822047,9028822047,9069326047,8906998043,1
9049062043,9049062043,9069326047,8906998043,1
9069326047,9069326047,9069326047,8906998043,0
8640542043,8640542043,9089782046,9028822047,1
8661174047,8661174047,9089782046,9028822047,1
8681238047,8681238047,9089782046,9028822047,1
8701894047,8701894047,9089782046,9028822047,1
8722574043,8722574043,9089782046,9028822047,1
8743246046,8743246046,9089782046,9028822047,1
8763758043,8763758043,9089782046,9028822047,1
8784110043,8784110043,9089782046,9028822047,1
8804358043,8804358043,9089782046,9028822047,1
8824926043,8824926043,9089782046,9028822047,1
8845478043,8845478043,9089782046,9028822047,1
8866102043,8866102043,9089782046,9028822047,1
8886766044,8886766044,9089782046,9028822047,1
8906998043,8906998043,9089782046,9028822047,1
8927310043,8927310043,9089782046,9028822047,1
8947990047,8947990047,9089782046,9028822047,1
8968326044,8968326044,9089782046,9028822047,1
8988606044,8988606044,9089782046,9028822047,1
9008750047,9008750047,9089782046,9028822047,1
9028822047,9028822047,9089782046,9028822047,1
9049062043,9049062043,9089782046,9028822047,1
9069326047,9069326047,9089782046,9028822047,1
9089782046,9089782046,9089782046,9028822047,0
8640542043,8640542043,9110302043,9028822047,1
8661174047,8661174047,9110302043,9028822047,1
8681238047,8681238047,9110302043,9028822047,1
8701894047,8701894047,9110302043,9028822047,1
8722574043,8722574043,9110302043,9028822047,1
8743246046,8743246046,9110302043,9028822047,1
8763758043,8763758043,9110302043,9028822047,1
8784110043,8784110043,9110302043,9028822047,1
8804358043,8804358043,9110302043,9028822047,1
8824926043,8824926043,9110302043,9028822047,1
8845478043,8845478043,9110302043,9028822047,1
8866102043,8866102043,9110302043,9028822047,1
8886766044,8886766044,9110302043,9028822047,1
8906998043,8906998043,9110302043,9028822047,1
8927310043,8927310043,9110302043,9028822047,1
8947990047,8947990047,9110302043,9028822047,1
8968326044,8968326044,9110302043,9028822047,1
8988606044,8988606044,9110302043,9028822047,1
9008750047,9008750047,9110302043,9028822047,1
9028822047,9028822047,9110302043,9028822047,1
9049062043,9049062043,9110302043,9028822047,1
9069326047,9069326047,9110302043,9028822047,1
9089782046,9089782046,9110302043,9028822047,1
9110302043,9110302043,9110302043,9028822047,0
8640542043,8640542043,9130950047,9028822047,1
8661174047,8661174047,9130950047,9028822047,1
8681238047,8681238047,9130950047,9028822047,1
8701894047,8701894047,9130950047,9028822047,1
8722574043,8722574043,9130950047,9028822047,1
8743246046,8743246046,9130950047,9028822047,1
8763758043,8763758043,9130950047,9028822047,1
8784110043,8784110043,9130950047,9028822047,1
8804358043,8804358043,9130950047,9028822047,1
8824926043,8824926043,9130950047,9028822047,1
8845478043,8845478043,9130950047,9028822047,1
8866102043,8866102043,9130950047,9028822047,1
8886766044,8886766044,9130950047,9028822047,1
8906998043,8906998043,9130950047,9028822047,1
8927310043,8927310043,9130950047,9028822047,1
8947990047,8947990047,9130950047,9028822047,1
8968326044,8968326044,9130950047,9028822047,1
8988606044,8988606044,9130950047,9028822047,1
9008750047,9008750047,9130950047,9028822047,1
9028822047,9028822047,9130950047,9028822047,1
9049062043,9049062043,9130950047,9028822047,1
9069326047,9069326047,9130950047,9028822047,1
9089782046,9089782046,9130950047,9028822047,1
9110302043,9110302043,9130950047,9028822047,1
9130950047,9130950047,9130950047,9028822047,0
8640542043,8640542043,9151038043,9028822047,1
8661174047,8661174047,9151038043,9028822047,1
8681238047,8681238047,9151038043,9028822047,1
8701894047,8701894047,9151038043,9028822047,1
8722574043,8722574043,9151038043,9028822047,1
8743246046,8743246046,9151038043,9028822047,1
8763758043,8763758043,9151038043,9028822047,1
8784110043,8784110043,9151038043,9028822047,1
8804358043,8804358043,9151038043,9028822047,1
8824926043,8824926043,9151038043,9028822047,1
8845478043,8845478043,9151038043,9028822047,1
8866102043,8866102043,9151038043,9028822047,1
8886766044,8886766044,9151038043,9028822047,1
8906998043,8906998043,9151038043,9028822047,1
8927310043,8927310043,9151038043,9028822047,1
8947990047,8947990047,9151038043,9028822047,1
8968326044,8968326044,9151038043,9028822047,1
8988606044,8988606044,9151038043,9028822047,1
9008750047,9008750047,9151038043,9028822047,1
9028822047,9028822047,9151038043,9028822047,1
9049062043,9049062043,9151038043,9028822047,1
9069326047,9069326047,9151038043,9028822047,1
9089782046,9089782046,9151038043,9028822047,1
9110302043,9110302043,9151038043,9028822047,1
9130950047,9130950047,9151038043,9028822047,1
9151038043,9151038043,9151038043,9028822047,0
8640542043,8640542043,9171830043,9028822047,1
8661174047,8661174047,9171830043,9028822047,1
8681238047,8681238047,9171830043,9028822047,1
8701894047,8701894047,9171830043,9028822047,1
8722574043,8722574043,9171830043,9028822047,1
8743246046,8743246046,9171830043,9028822047,1
8763758043,8763758043,9171830043,9028822047,1
8784110043,8784110043,9171830043,9028822047,1
8804358043,8804358043,9171830043,9028822047,1
8824926043,8824926043,9171830043,9028822047,1
8845478043,8845478043,9171830043,9028822047,1
8866102043,8866102043,9171830043,9028822047,1
8886766044,8886766044,9171830043,9028822047,1
8906998043,8906998043,9171830043,9028822047,1
8927310043,8927310043,9171830043,9028822047,1
8947990047,8947990047,9171830043,9028822047,1
8968326044,8968326044,9171830043,9028822047,1
8988606044,8988606044,9171830043,9028822047,1
9008750047,9008750047,9171830043,9028822047,1
9028822047,9028822047,9171830043,9028822047,1
9049062043,9049062043,9171830043,9028822047,1
9069326047,9069326047,9171830043,9028822047,1
9089782046,9089782046,9171830043,9028822047,1
9110302043,9110302043,9171830043,9028822047,1
9130950047,9130950047,9171830043,9028822047,1
9151038043,9151038043,9171830043,9028822047,1
9171830043,9171830043,9171830043,9028822047,0
8640542043,8640542043,9192222045,9028822047,1
8661174047,8661174047,9192222045,9028822047,1
8681238047,8681238047,9192222045,9028822047,1
8701894047,8701894047,9192222045,9028822047,1
8722574043,8722574043,9192222045,9028822047,1
8743246046,8743246046,9192222045,9028822047,1
8763758043,8763758043,9192222045,9028822047,1
8784110043,8784110043,9192222045,9028822047,1
8804358043,8804358043,9192222045,9028822047,1
8824926043,8824926043,9192222045,9028822047,1
8845478043,8845478043,9192222045,9028822047,1
8866102043,8866102043,9192222045,9028822047,1
8886766044,8886766044,9192222045,9028822047,1
8906998043,8906998043,9192222045,9028822047,1
8927310043,8927310043,9192222045,9028822047,1
8947990047,8947990047,9192222045,9028822047,1
8968326044,8968326044,9192222045,9028822047,1
8988606044,8988606044,9192222045,9028822047,1
9008750047,9008750047,9192222045,9028822047,1
9028822047,9028822047,9192222045,9028822047,1
9049062043,9049062043,9192222045,9028822047,1
9069326047,9069326047,9192222045,9028822047,1
9089782046,9089782046,9192222045,9028822047,1
9110302043,9110302043,9192222045,9028822047,1
9130950047,9130950047,9192222045,9028822047,1
9151038043,9151038043,9192222045,9028822047,1
9171830043,9171830043,9192222045,9028822047,1
9192222045,9192222045,9192222045,9028822047,0
8640542043,8640542043,9212526043,9151038043,1
8661174047,8661174047,9212526043,9151038043,1
8681238047,8681238047,9212526043,9151038043,1
8701894047,8701894047,9212526043,9151038043,1
8722574043,8722574043,9212526043,9151038043,1
8743246046,8743246046,9212526043,9151038043,1
8763758043,8763758043,9212526043,9151038043,1
8784110043,8784110043,9212526043,9151038043,1
8804358043,8804358043,9212526043,9151038043,1
8824926043,8824926043,9212526043,9151038043,1
8845478043,8845478043,9212526043,9151038043,1
8866102043,8866102043,9212526043,9151038043,1
8886766044,8886766044,9212526043,9151038043,1
8906998043,8906998043,9212526043,9151038043,1
8927310043,8927310043,9212526043,9151038043,1
8947990047,8947990047,9212526043,9151038043,1
8968326044,8968326044,9212526043,9151038043,1
8988606044,8988606044,9212526043,9151038043,1
9008750047,9008750047,9212526043,9151038043,1
9028822047,9028822047,9212526043,9151038043,1
9049062043,9049062043,9212526043,9151038043,1
9069326047,9069326047,9212526043,9151038043,1
9089782046,9089782046,9212526043,9151038043,1
9110302043,9110302043,9212526043,9151038043,1
9130950047,9130950047,9212526043,9151038043,1
9151038043,9151038043,9212526043,9151038043,1
9171830043,9171830043,9212526043,9151038043,1
9192222045,9192222045,9212526043,9151038043,1
9212526043,9212526043,9212526043,9151038043,0
8640542043,8640542043,9232894043,9151038043,1
8661174047,8661174047,9232894043,9151038043,1
8681238047,8681238047,9232894043,9151038043,1
8701894047,8701894047,9232894043,9151038043,1
8722574043,8722574043,9232894043,9151038043,1
8743246046,8743246046,9232894043,9151038043,1
8763758043,8763758043,9232894043,9151038043,1
8784110043,8784110043,9232894043,9151038043,1
8804358043,8804358043,9232894043,9151038043,1
8824926043,8824926043,9232894043,9151038043,1
8845478043,8845478043,9232894043,9151038043,1
8866102043,8866102043,9232894043,9151038043,1
8886766044,8886766044,9232894043,9151038043,1
8906998043,8906998043,9232894043,9151038043,1
8927310043,8927310043,9232894043,9151038043,1
8947990047,8947990047,9232894043,9151038043,1
8968326044,8968326044,9232894043,9151038043,1
8988606044,8988606044,9232894043,9151038043,1
9008750047,9008750047,9232894043,9151038043,1
9028822047,9028822047,9232894043,9151038043,1
9049062043,9049062043,9232894043,9151038043,1
9069326047,9069326047,9232894043,9151038043,1
9089782046,9089782046,9232894043,9151038043,1
9110302043,9110302043,9232894043,9151038043,1
9130950047,9130950047,9232894043,9151038043,1
9151038043,9151038043,9232894043,9151038043,1
9171830043,9171830043,9232894043,9151038043,1
9192222045,9192222045,9232894043,9151038043,1
9212526043,9212526043,9232894043,9151038043,1
9232894043,9232894043,9232894043,9151038043,0
8640542043,8640542043,9252950047,9151038043,1
8661174047,8661174047,9252950047,9151038043,1
8681238047,8681238047,9252950047,9151038043,1
8701894047,8701894047,9252950047,9151038043,1
8722574043,8722574043,9252950047,9151038043,1
8743246046,8743246046,9252950047,9151038043,1
8763758043,8763758043,9252950047,9151038043,1
8784110043,8784110043,9252950047,9151038043,1
8804358043,8804358043,9252950047,9151038043,1
8824926043,8824926043,9252950047,9151038043,1
8845478043,8845478043,9252950047,9151038043,1
8866102043,8866102043,9252950047,9151038043,1
8886766044,8886766044,9252950047,9151038043,1
8906998043,8906998043,9252950047,9151038043,1
8927310043,8927310043,9252950047,9151038043,1
8947990047,8947990047,9252950047,9151038043,1
8968326044,8968326044,9252950047,9151038043,1
8988606044,8988606044,9252950047,9151038043,1
9008750047,9008750047,9252950047,9151038043,1
9028822047,9028822047,9252950047,9151038043,1
9049062043,9049062043,9252950047,9151038043,1
9069326047,9069326047,9252950047,9151038043,1
9089782046,9089782046,9252950047,9151038043,1
9110302043,9110302043,9252950047,9151038043,1
9130950047,9130950047,9252950047,9151038043,1
9151038043,9151038043,9252950047,9151038043,1
9171830043,9171830043,9252950047,9151038043,1
9192222045,9192222045,9252950047,9151038043,1
9212526043,9212526043,9252950047,9151038043,1
9232894043,9232894043,9252950047,9151038043,1
9252950047,9252950047,9252950047,9151038043,0
8640542043,8640542043,9273726043,9151038043,1
8661174047,8661174047,9273726043,9151038043,1
8681238047,8681238047,9273726043,9151038043,1
8701894047,8701894047,9273726043,9151038043,1
8722574043,8722574043,9273726043,9151038043,1
8743246046,8743246046,9273726043,9151038043,1
8763758043,8763758043,9273726043,9151038043,1
8784110043,8784110043,9273726043,9151038043,1
8804358043,8804358043,9273726043,9151038043,1
8824926043,8824926043,9273726043,9151038043,1
8845478043,8845478043,9273726043,9151038043,1
8866102043,8866102043,9273726043,9151038043,1
8886766044,8886766044,9273726043,9151038043,1
8906998043,8906998043,9273726043,9151038043,1
8927310043,8927310043,9273726043,9151038043,1
8947990047,8947990047,9273726043,9151038043,1
8968326044,8968326044,9273726043,9151038043,1
8988606044,8988606044,9273726043,9151038043,1
9008750047,9008750047,9273726043,9151038043,1
9028822047,9028822047,9273726043,9151038043,1
9049062043,9049062043,9273726043,9151038043,1
9069326047,9069326047,9273726043,9151038043,1
9089782046,9089782046,9273726043,9151038043,1
9110302043,9110302043,9273726043,9151038043,1
9130950047,9130950047,9273726043,9151038043,1
9151038043,9151038043,9273726043,9151038043,1
9171830043,9171830043,9273726043,9151038043,1
9192222045,9192222045,9273726043,9151038043,1
9212526043,9212526043,9273726043,9151038043,1
9232894043,9232894043,9273726043,9151038043,1
9252950047,9252950047,9273726043,9151038043,1
9273726043,9273726043,9273726043,9151038043,0
8640542043,8640542043,9293750043,9151038043,1
8661174047,8661174047,9293750043,9151038043,1
8681238047,8681238047,9293750043,9151038043,1
8701894047,8701894047,9293750043,9151038043,1
8722574043,8722574043,9293750043,9151038043,1
8743246046,8743246046,9293750043,9151038043,1
8763758043,8763758043,9293750043,9151038043,1
8784110043,8784110043,9293750043,9151038043,1
8804358043,8804358043,9293750043,9151038043,1
8824926043,8824926043,9293750043,9151038043,1
8845478043,8845478043,9293750043,9151038043,1
8866102043,8866102043,9293750043,9151038043,1
8886766044,8886766044,9293750043,9151038043,1
8906998043,8906998043,9293750043,9151038043,1
8927310043,8927310043,9293750043,9151038043,1
8947990047,8947990047,9293750043,9151038043,1
8968326044,8968326044,9293750043,9151038043,1
8988606044,8988606044,9293750043,9151038043,1
9008750047,9008750047,9293750043,9151038043,1
9028822047,9028822047,9293750043,9151038043,1
9049062043,9049062043,9293750043,9151038043,1
9069326047,9069326047,9293750043,9151038043,1
9089782046,9089782046,9293750043,9151038043,1
9110302043,9110302043,9293750043,9151038043,1
9130950047,9130950047,9293750043,9151038043,1
9151038043,9151038043,9293750043,9151038043,1
9171830043,9171830043,9293750043,9151038043,1
9192222045,9192222045,9293750043,9151038043,1
9212526043,9212526043,9293750043,9151038043,1
9232894043,9232894043,9293750043,9151038043,1
9252950047,9252950047,9293750043,9151038043,1
9273726043,9273726043,9293750043,9151038043,1
9293750043,9293750043,9293750043,9151038043,0
8640542043,8640542043,9313878044,9151038043,1
8661174047,8661174047,9313878044,9151038043,1
8681238047,8681238047,9313878044,9151038043,1
8701894047,8701894047,9313878044,9151038043,1
8722574043,8722574043,9313878044,9151038043,1
8743246046,8743246046,9313878044,9151038043,1
8763758043,8763758043,9313878044,9151038043,1
8784110043,8784110043,9313878044,9151038043,1
8804358043,8804358043,9313878044,9151038043,1
8824926043,8824926043,9313878044,9151038043,1
8845478043,8845478043,9313878044,9151038043,1
8866102043,8866102043,9313878044,9151038043,1
8886766044,8886766044,9313878044,9151038043,1
8906998043,8906998043,9313878044,9151038043,1
8927310043,8927310043,9313878044,9151038043,1
8947990047,8947990047,9313878044,9151038043,1
8968326044,8968326044,9313878044,9151038043,1
8988606044,8988606044,9313878044,9151038043,1
9008750047,9008750047,9313878044,9151038043,1
9028822047,9028822047,9313878044,9151038043,1
9049062043,9049062043,9313878044,9151038043,1
9069326047,9069326047,9313878044,9151038043,1
9089782046,9089782046,9313878044,9151038043,1
9110302043,9110302043,9313878044,9151038043,1
9130950047,9130950047,9313878044,9151038043,1
9151038043,9151038043,9313878044,9151038043,1
9171830043,9171830043,9313878044,9151038043,1
9192222045,9192222045,9313878044,9151038043,1
9212526043,9212526043,9313878044,9151038043,1
9232894043,9232894043,9313878044,9151038043,1
9252950047,9252950047,9313878044,9151038043,1
9273726043,9273726043,9313878044,9151038043,1
9293750043,9293750043,9313878044,9151038043,1
9313878044,9313878044,9313878044,9151038043,0
8640542043,8640542043,9334086043,9273726043,1
8661174047,8661174047,9334086043,9273726043,1
8681238047,8681238047,9334086043,9273726043,1
8701894047,8701894047,9334086043,9273726043,1
8722574043,8722574043,9334086043,9273726043,1
8743246046,8743246046,9334086043,9273726043,1
8763758043,8763758043,9334086043,9273726043,1
8784110043,8784110043,9334086043,9273726043,1
8804358043,8804358043,9334086043,9273726043,1
8824926043,8824926043,9334086043,9273726043,1
8845478043,8845478043,9334086043,9273726043,1
8866102043,8866102043,9334086043,9273726043,1
8886766044,8886766044,9334086043,9273726043,1
8906998043,8906998043,9334086043,9273726043,1
8927310043,8927310043,9334086043,9273726043,1
8947990047,8947990047,9334086043,9273726043,1
8968326044,8968326044,9334086043,9273726043,1
8988606044,8988606044,9334086043,9273726043,1
9008750047,9008750047,9334086043,9273726043,1
9028822047,9028822047,9334086043,9273726043,1
9049062043,9049062043,9334086043,9273726043,1
9069326047,9069326047,9334086043,9273726043,1
9089782046,9089782046,9334086043,9273726043,1
9110302043,9110302043,9334086043,9273726043,1
9130950047,9130950047,9334086043,9273726043,1
9151038043,9151038043,9334086043,9273726043,1
9171830043,9171830043,9334086043,9273726043,1
9192222045,9192222045,9334086043,9273726043,1
9212526043,9212526043,9334086043,9273726043,1
9232894043,9232894043,9334086043,9273726043,1
9252950047,9252950047,9334086043,9273726043,1
9273726043,9273726043,9334086043,9273726043,1
9293750043,9293750043,9334086043,9273726043,1
9313878044,9313878044,9334086043,9273726043,1
9334086043,9334086043,9334086043,9273726043,0
8640542043,8640542043,9354206047,9273726043,1
8661174047,8661174047,9354206047,9273726043,1
8681238047,8681238047,9354206047,9273726043,1
8701894047,8701894047,9354206047,9273726043,1
8722574043,8722574043,9354206047,9273726043,1
8743246046,8743246046,9354206047,9273726043,1
8763758043,8763758043,9354206047,9273726043,1
8784110043,8784110043,9354206047,9273726043,1
8804358043,8804358043,9354206047,9273726043,1
8824926043,8824926043,9354206047,9273726043,1
8845478043,8845478043,9354206047,9273726043,1
8866102043,8866102043,9354206047,9273726043,1
8886766044,8886766044,9354206047,9273726043,1
8906998043,8906998043,9354206047,9273726043,1
8927310043,8927310043,9354206047,9273726043,1
8947990047,8947990047,9354206047,9273726043,1
8968326044,8968326044,9354206047,9273726043,1
8988606044,8988606044,9354206047,9273726043,1
9008750047,9008750047,9354206047,9273726043,1
9028822047,9028822047,9354206047,9273726043,1
9049062043,9049062043,9354206047,9273726043,1
9069326047,9069326047,9354206047,9273726043,1
9089782046,9089782046,9354206047,9273726043,1
9110302043,9110302043,9354206047,9273726043,1
9130950047,9130950047,9354206047,9273726043,1
9151038043,9151038043,9354206047,9273726043,1
9171830043,9171830043,9354206047,9273726043,1
9192222045,9192222045,9354206047,9273726043,1
9212526043,9212526043,9354206047,9273726043,1
9232894043,9232894043,9354206047,9273726043,1
9252950047,9252950047,9354206047,9273726043,1
9273726043,9273726043,9354206047,9273726043,1
9293750043,9293750043,9354206047,9273726043,1
9313878044,9313878044,9354206047,9273726043,1
9334086043,9334086043,9354206047,9273726043,1
9354206047,9354206047,9354206047,9273726043,0
8640542043,8640542043,9374630047,9273726043,1
8661174047,8661174047,9374630047,9273726043,1
8681238047,8681238047,9374630047,9273726043,1
8701894047,8701894047,9374630047,9273726043,1
8722574043,8722574043,9374630047,9273726043,1
8743246046,8743246046,9374630047,9273726043,1
8763758043,8763758043,9374630047,9273726043,1
8784110043,8784110043,9374630047,9273726043,1
8804358043,8804358043,9374630047,9273726043,1
8824926043,8824926043,9374630047,9273726043,1
8845478043,8845478043,9374630047,9273726043,1
8866102043,8866102043,9374630047,9273726043,1
8886766044,8886766044,9374630047,9273726043,1
8906998043,8906998043,9374630047,9273726043,1
8927310043,8927310043,9374630047,9273726043,1
8947990047,8947990047,9374630047,9273726043,1
8968326044,8968326044,9374630047,9273726043,1
8988606044,8988606044,9374630047,9273726043,1
9008750047,9008750047,9374630047,9273726043,1
9028822047,9028822047,9374630047,9273726043,1
9049062043,9049062043,9374630047,9273726043,1
9069326047,9069326047,9374630047,9273726043,1
9089782046,9089782046,9374630047,9273726043,1
9110302043,9110302043,9374630047,9273726043,1
9130950047,9130950047,9374630047,9273726043,1
9151038043,9151038043,9374630047,9273726043,1
9171830043,9171830043,9374630047,9273726043,1
9192222045,9192222045,9374630047,9273726043,1
9212526043,9212526043,9374630047,9273726043,1
9232894043,9232894043,9374630047,9273726043,1
9252950047,9252950047,9374630047,9273726043,1
9273726043,9273726043,9374630047,9273726043,1
9293750043,9293750043,9374630047,9273726043,1
9313878044,9313878044,9374630047,9273726043,1
9334086043,9334086043,9374630047,9273726043,1
9354206047,9354206047,9374630047,9273726043,1
9374630047,9374630047,9374630047,9273726043,0
8640542043,8640542043,9394670043,9273726043,1
8661174047,8661174047,9394670043,9273726043,1
8681238047,8681238047,9394670043,9273726043,1
8701894047,8701894047,9394670043,9273726043,1
8722574043,8722574043,9394670043,9273726043,1
8743246046,8743246046,9394670043,9273726043,1
8763758043,8763758043,9394670043,9273726043,1
8784110043,8784110043,9394670043,9273726043,1
8804358043,8804358043,9394670043,9273726043,1
8824926043,8824926043,9394670043,9273726043,1
8845478043,8845478043,9394670043,9273726043,1
8866102043,8866102043,9394670043,9273726043,1
8886766044,8886766044,9394670043,9273726043,1
8906998043,8906998043,9394670043,9273726043,1
8927310043,8927310043,9394670043,9273726043,1
8947990047,8947990047,9394670043,9273726043,1
8968326044,8968326044,9394670043,9273726043,1
8988606044,8988606044,9394670043,9273726043,1
9008750047,9008750047,9394670043,9273726043,1
9028822047,9028822047,9394670043,9273726043,1
9049062043,9049062043,9394670043,9273726043,1
9069326047,9069326047,9394670043,9273726043,1
9089782046,9089782046,9394670043,9273726043,1
9110302043,9110302043,9394670043,9273726043,1
9130950047,9130950047,9394670043,9273726043,1
9151038043,9151038043,9394670043,9273726043,1
9171830043,9171830043,9394670043,9273726043,1
9192222045,9192222045,9394670043,9273726043,1
9212526043,9212526043,9394670043,9273726043,1
9232894043,9232894043,9394670043,9273726043,1
9252950047,9252950047,9394670043,9273726043,1
9273726043,9273726043,9394670043,9273726043,1
9293750043,9293750043,9394670043,9273726043,1
9313878044,9313878044,9394670043,9273726043,1
9334086043,9334086043,9394670043,9273726043,1
9354206047,9354206047,9394670043,9273726043,1
9374630047,9374630047,9394670043,9273726043,1
9394670043,9394670043,9394670043,9273726043,0
8640542043,8640542043,9414926044,9273726043,1
8661174047,8661174047,9414926044,9273726043,1
8681238047,8681238047,9414926044,9273726043,1
8701894047,8701894047,9414926044,9273726043,1
8722574043,8722574043,9414926044,9273726043,1
8743246046,8743246046,9414926044,9273726043,1
8763758043,8763758043,9414926044,9273726043,1
8784110043,8784110043,9414926044,9273726043,1
8804358043,8804358043,9414926044,9273726043,1
8824926043,8824926043,9414926044,9273726043,1
8845478043,8845478043,9414926044,9273726043,1
8866102043,8866102043,9414926044,9273726043,1
8886766044,8886766044,9414926044,9273726043,1
8906998043,8906998043,9414926044,9273726043,1
8927310043,8927310043,9414926044,9273726043,1
8947990047,8947990047,9414926044,9273726043,1
8968326044,8968326044,9414926044,9273726043,1
8988606044,8988606044,9414926044,9273726043,1
9008750047,9008750047,9414926044,9273726043,1
9028822047,9028822047,9414926044,9273726043,1
9049062043,9049062043,9414926044,9273726043,1
9069326047,9069326047,9414926044,9273726043,1
9089782046,9089782046,9414926044,9273726043,1
9110302043,9110302043,9414926044,9273726043,1
9130950047,9130950047,9414926044,9273726043,1
9151038043,9151038043,9414926044,9273726043,1
9171830043,9171830043,9414926044,9273726043,1
9192222045,9192222045,9414926044,9273726043,1
9212526043,9212526043,9414926044,9273726043,1
9232894043,9232894043,9414926044,9273726043,1
9252950047,9252950047,9414926044,9273726043,1
9273726043,9273726043,9414926044,9273726043,1
9293750043,9293750043,9414926044,9273726043,1
9313878044,9313878044,9414926044,9273726043,1
9334086043,9334086043,9414926044,9273726043,1
9354206047,9354206047,9414926044,9273726043,1
9374630047,9374630047,9414926044,9273726043,1
9394670043,9394670043,9414926044,9273726043,1
9414926044,9414926044,9414926044,9273726043,0
8640542043,8640542043,9434950045,9273726043,1
8661174047,8661174047,9434950045,9273726043,1
8681238047,8681238047,9434950045,9273726043,1
8701894047,8701894047,9434950045,9273726043,1
8722574043,8722574043,9434950045,9273726043,1
8743246046,8743246046,9434950045,9273726043,1
8763758043,8763758043,9434950045,9273726043,1
8784110043,8784110043,9434950045,9273726043,1
8804358043,8804358043,9434950045,9273726043,1
8824926043,8824926043,9434950045,9273726043,1
8845478043,8845478043,9434950045,9273726043,1
8866102043,8866102043,9434950045,9273726043,1
8886766044,8886766044,9434950045,9273726043,1
8906998043,8906998043,9434950045,9273726043,1
8927310043,8927310043,9434950045,9273726043,1
8947990047,8947990047,9434950045,9273726043,1
8968326044,8968326044,9434950045,9273726043,1
8988606044,8988606044,9434950045,9273726043,1
9008750047,9008750047,9434950045,9273726043,1
9028822047,9028822047,9434950045,9273726043,1
9049062043,9049062043,9434950045,9273726043,1
9069326047,9069326047,9434950045,9273726043,1
9089782046,9089782046,9434950045,9273726043,1
9110302043,9110302043,9434950045,9273726043,1
9130950047,9130950047,9434950045,9273726043,1
9151038043,9151038043,9434950045,9273726043,1
9171830043,9171830043,9434950045,9273726043,1
9192222045,9192222045,9434950045,9273726043,1
9212526043,9212526043,9434950045,9273726043,1
9232894043,9232894043,9434950045,9273726043,1
9252950047,9252950047,9434950045,9273726043,1
9273726043,9273726043,9434950045,9273726043,1
9293750043,9293750043,9434950045,9273726043,1
9313878044,9313878044,9434950045,9273726043,1
9334086043,9334086043,9434950045,9273726043,1
9354206047,9354206047,9434950045,9273726043,1
9374630047,9374630047,9434950045,9273726043,1
9394670043,9394670043,9434950045,9273726043,1
9414926044,9414926044,9434950045,9273726043,1
9434950045,9434950045,9434950045,9273726043,0
8640542043,8640542043,9455566043,9394670043,1
8661174047,8661174047,9455566043,9394670043,1
8681238047,8681238047,9455566043,9394670043,1
8701894047,8701894047,9455566043,9394670043,1
8722574043,8722574043,9455566043,9394670043,1
8743246046,8743246046,9455566043,9394670043,1
8763758043,8763758043,9455566043,9394670043,1
8784110043,8784110043,9455566043,9394670043,1
8804358043,8804358043,9455566043,9394670043,1
8824926043,8824926043,9455566043,9394670043,1
8845478043,8845478043,9455566043,9394670043,1
8866102043,8866102043,9455566043,9394670043,1
8886766044,8886766044,9455566043,9394670043,1
8906998043,8906998043,9455566043,9394670043,1
8927310043,8927310043,9455566043,9394670043,1
8947990047,8947990047,9455566043,9394670043,1
8968326044,8968326044,9455566043,9394670043,1
8988606044,8988606044,9455566043,9394670043,1
9008750047,9008750047,9455566043,9394670043,1
9028822047,9028822047,9455566043,9394670043,1
9049062043,9049062043,9455566043,9394670043,1
9069326047,9069326047,9455566043,9394670043,1
9089782046,9089782046,9455566043,9394670043,1
9110302043,9110302043,9455566043,9394670043,1
9130950047,9130950047,9455566043,9394670043,1
9151038043,9151038043,9455566043,9394670043,1
9171830043,9171830043,9455566043,9394670043,1
9192222045,9192222045,9455566043,9394670043,1
9212526043,9212526043,9455566043,9394670043,1
9232894043,9232894043,9455566043,9394670043,1
9252950047,9252950047,9455566043,9394670043,1
9273726043,9273726043,9455566043,9394670043,1
9293750043,9293750043,9455566043,9394670043,1
9313878044,9313878044,9455566043,9394670043,1
9334086043,9334086043,9455566043,9394670043,1
9354206047,9354206047,9455566043,9394670043,1
9374630047,9374630047,9455566043,9394670043,1
9394670043,9394670043,9455566043,9394670043,1
9414926044,9414926044,9455566043,9394670043,1
9434950045,9434950045,9455566043,9394670043,1
9455566043,9455566043,9455566043,9394670043,0
8640542043,8640542043,9476438043,9394670043,1
8661174047,8661174047,9476438043,9394670043,1
8681238047,8681238047,9476438043,9394670043,1
8701894047,8701894047,9476438043,9394670043,1
8722574043,8722574043,9476438043,9394670043,1
8743246046,8743246046,9476438043,9394670043,1
8763758043,8763758043,9476438043,9394670043,1
8784110043,8784110043,9476438043,9394670043,1
8804358043,8804358043,9476438043,9394670043,1
8824926043,8824926043,9476438043,9394670043,1
8845478043,8845478043,9476438043,9394670043,1
8866102043,8866102043,9476438043,9394670043,1
8886766044,8886766044,9476438043,9394670043,1
8906998043,8906998043,9476438043,9394670043,1
8927310043,8927310043,9476438043,9394670043,1
8947990047,8947990047,9476438043,9394670043,1
8968326044,8968326044,9476438043,9394670043,1
8988606044,8988606044,9476438043,9394670043,1
9008750047,9008750047,9476438043,9394670043,1
9028822047,9028822047,9476438043,9394670043,1
9049062043,9049062043,9476438043,9394670043,1
9069326047,9069326047,9476438043,9394670043,1
9089782046,9089782046,9476438043,9394670043,1
9110302043,9110302043,9476438043,9394670043,1
9130950047,9130950047,9476438043,9394670043,1
9151038043,9151038043,9476438043,9394670043,1
9171830043,9171830043,9476438043,9394670043,1
9192222045,9192222045,9476438043,9394670043,1
9212526043,9212526043,9476438043,9394670043,1
9232894043,9232894043,9476438043,9394670043,1
9252950047,9252950047,9476438043,9394670043,1
9273726043,9273726043,9476438043,9394670043,1
9293750043,9293750043,9476438043,9394670043,1
9313878044,9313878044,9476438043,9394670043,1
9334086043,9334086043,9476438043,9394670043,1
9354206047,9354206047,9476438043,9394670043,1
9374630047,9374630047,9476438043,9394670043,1
9394670043,9394670043,9476438043,9394670043,1
9414926044,9414926044,9476438043,9394670043,1
9434950045,9434950045,9476438043,9394670043,1
9455566043,9455566043,9476438043,9394670043,1
9476438043,9476438043,9476438043,9394670043,0
8640542043,8640542043,9497302043,9394670043,1
8661174047,8661174047,9497302043,9394670043,1
8681238047,8681238047,9497302043,9394670043,1
8701894047,8701894047,9497302043,9394670043,1
8722574043,8722574043,9497302043,9394670043,1
8743246046,8743246046,9497302043,9394670043,1
8763758043,8763758043,9497302043,9394670043,1
8784110043,8784110043,9497302043,9394670043,1
8804358043,8804358043,9497302043,9394670043,1
8824926043,8824926043,9497302043,9394670043,1
8845478043,8845478043,9497302043,9394670043,1
8866102043,8866102043,9497302043,9394670043,1
8886766044,8886766044,9497302043,9394670043,1
8906998043,8906998043,9497302043,9394670043,1
8927310043,8927310043,9497302043,9394670043,1
8947990047,8947990047,9497302043,9394670043,1
8968326044,8968326044,9497302043,9394670043,1
8988606044,8988606044,9497302043,9394670043,1
9008750047,9008750047,9497302043,9394670043,1
9028822047,9028822047,9497302043,9394670043,1
9049062043,9049062043,9497302043,9394670043,1
9069326047,9069326047,9497302043,9394670043,1
9089782046,9089782046,9497302043,9394670043,1
9110302043,9110302043,9497302043,9394670043,1
9130950047,9130950047,9497302043,9394670043,1
9151038043,9151038043,9497302043,9394670043,1
9171830043,9171830043,9497302043,9394670043,1
9192222045,9192222045,9497302043,9394670043,1
9212526043,9212526043,9497302043,9394670043,1
9232894043,9232894043,9497302043,9394670043,1
9252950047,9252950047,9497302043,9394670043,1
9273726043,9273726043,9497302043,9394670043,1
9293750043,9293750043,9497302043,9394670043,1
9313878044,9313878044,9497302043,9394670043,1
9334086043,9334086043,9497302043,9394670043,1
9354206047,9354206047,9497302043,9394670043,1
9374630047,9374630047,9497302043,9394670043,1
9394670043,9394670043,9497302043,9394670043,1
9414926044,9414926044,9497302043,9394670043,1
9434950045,9434950045,9497302043,9394670043,1
9455566043,9455566043,9497302043,9394670043,1
9476438043,9476438043,9497302043,9394670043,1
9497302043,9497302043,9497302043,9394670043,0
8640542043,8640542043,9517862045,9394670043,1
8661174047,8661174047,9517862045,9394670043,1
8681238047,8681238047,9517862045,9394670043,1
8701894047,8701894047,9517862045,9394670043,1
8722574043,8722574043,9517862045,9394670043,1
8743246046,8743246046,9517862045,9394670043,1
8763758043,8763758043,9517862045,9394670043,1
8784110043,8784110043,9517862045,9394670043,1
8804358043,8804358043,9517862045,9394670043,1
8824926043,8824926043,9517862045,9394670043,1
8845478043,8845478043,9517862045,9394670043,1
8866102043,8866102043,9517862045,9394670043,1
8886766044,8886766044,9517862045,9394670043,1
8906998043,8906998043,9517862045,9394670043,1
8927310043,8927310043,9517862045,9394670043,1
8947990047,8947990047,9517862045,9394670043,1
8968326044,8968326044,9517862045,9394670043,1
8988606044,8988606044,9517862045,9394670043,1
9008750047,9008750047,9517862045,9394670043,1
9028822047,9028822047,9517862045,9394670043,1
9049062043,9049062043,9517862045,9394670043,1
9069326047,9069326047,9517862045,9394670043,1
9089782046,9089782046,9517862045,9394670043,1
9110302043,9110302043,9517862045,9394670043,1
9130950047,9130950047,9517862045,9394670043,1
9151038043,9151038043,9517862045,9394670043,1
9171830043,9171830043,9517862045,9394670043,1
9192222045,9192222045,9517862045,9394670043,1
9212526043,9212526043,9517862045,9394670043,1
9232894043,9232894043,9517862045,9394670043,1
9252950047,9252950047,9517862045,9394670043,1
9273726043,9273726043,9517862045,9394670043,1
9293750043,9293750043,9517862045,9394670043,1
9313878044,9313878044,9517862045,9394670043,1
9334086043,9334086043,9517862045,9394670043,1
9354206047,9354206047,9517862045,9394670043,1
9374630047,9374630047,9517862045,9394670043,1
9394670043,9394670043,9517862045,9394670043,1
9414926044,9414926044,9517862045,9394670043,1
9434950045,9434950045,9517862045,9394670043,1
9455566043,9455566043,9517862045,9394670043,1
9476438043,9476438043,9517862045,9394670043,1
9497302043,9497302043,9517862045,9394670043,1
9517862045,9517862045,9517862045,9394670043,0
8640542043,8640542043,9538454043,9394670043,1
8661174047,8661174047,9538454043,9394670043,1
8681238047,8681238047,9538454043,9394670043,1
8701894047,8701894047,9538454043,9394670043,1
8722574043,8722574043,9538454043,9394670043,1
8743246046,8743246046,9538454043,9394670043,1
8763758043,8763758043,9538454043,9394670043,1
8784110043,8784110043,9538454043,9394670043,1
8804358043,8804358043,9538454043,9394670043,1
8824926043,8824926043,9538454043,9394670043,1
8845478043,8845478043,9538454043,9394670043,1
8866102043,8866102043,9538454043,9394670043,1
8886766044,8886766044,9538454043,9394670043,1
8906998043,8906998043,9538454043,9394670043,1
8927310043,8927310043,9538454043,9394670043,1
8947990047,8947990047,9538454043,9394670043,1
8968326044,8968326044,9538454043,9394670043,1
8988606044,8988606044,9538454043,9394670043,1
9008750047,9008750047,9538454043,9394670043,1
9028822047,9028822047,9538454043,9394670043,1
9049062043,9049062043,9538454043,9394670043,1
9069326047,9069326047,9538454043,9394670043,1
9089782046,9089782046,9538454043,9394670043,1
9110302043,9110302043,9538454043,9394670043,1
9130950047,9130950047,9538454043,9394670043,1
9151038043,9151038043,9538454043,9394670043,1
9171830043,9171830043,9538454043,9394670043,1
9192222045,9192222045,9538454043,9394670043,1
9212526043,9212526043,9538454043,9394670043,1
9232894043,9232894043,9538454043,9394670043,1
9252950047,9252950047,9538454043,9394670043,1
9273726043,9273726043,9538454043,9394670043,1
9293750043,9293750043,9538454043,9394670043,1
9313878044,9313878044,9538454043,9394670043,1
9334086043,9334086043,9538454043,9394670043,1
9354206047,9354206047,9538454043,9394670043,1
9374630047,9374630047,9538454043,9394670043,1
9394670043,9394670043,9538454043,9394670043,1
9414926044,9414926044,9538454043,9394670043,1
9434950045,9434950045,9538454043,9394670043,1
9455566043,9455566043,9538454043,9394670043,1
9476438043,9476438043,9538454043,9394670043,1
9497302043,9497302043,9538454043,9394670043,1
9517862045,9517862045,9538454043,9394670043,1
9538454043,9538454043,9538454043,9394670043,0
8640542043,8640542043,9559054043,9394670043,1
8661174047,8661174047,9559054043,9394670043,1
8681238047,8681238047,9559054043,9394670043,1
8701894047,8701894047,9559054043,9394670043,1
8722574043,8722574043,9559054043,9394670043,1
8743246046,8743246046,9559054043,9394670043,1
8763758043,8763758043,9559054043,9394670043,1
8784110043,8784110043,9559054043,9394670043,1
8804358043,8804358043,9559054043,9394670043,1
8824926043,8824926043,9559054043,9394670043,1
8845478043,8845478043,9559054043,9394670043,1
8866102043,8866102043,9559054043,9394670043,1
8886766044,8886766044,9559054043,9394670043,1
8906998043,8906998043,9559054043,9394670043,1
8927310043,8927310043,9559054043,9394670043,1
8947990047,8947990047,9559054043,9394670043,1
8968326044,8968326044,9559054043,9394670043,1
8988606044,8988606044,9559054043,9394670043,1
9008750047,9008750047,9559054043,9394670043,1
9028822047,9028822047,9559054043,9394670043,1
9049062043,9049062043,9559054043,9394670043,1
9069326047,9069326047,9559054043,9394670043,1
9089782046,9089782046,9559054043,9394670043,1
9110302043,9110302043,9559054043,9394670043,1
9130950047,9130950047,9559054043,9394670043,1
9151038043,9151038043,9559054043,9394670043,1
9171830043,9171830043,9559054043,9394670043,1
9192222045,9192222045,9559054043,9394670043,1
9212526043,9212526043,9559054043,9394670043,1
9232894043,9232894043,9559054043,9394670043,1
9252950047,9252950047,9559054043,9394670043,1
9273726043,9273726043,9559054043,9394670043,1
9293750043,9293750043,9559054043,9394670043,1
9313878044,9313878044,9559054043,9394670043,1
9334086043,9334086043,9559054043,9394670043,1
9354206047,9354206047,9559054043,9394670043,1
9374630047,9374630047,9559054043,9394670043,1
9394670043,9394670043,9559054043,9394670043,1
9414926044,9414926044,9559054043,9394670043,1
9434950045,9434950045,9559054043,9394670043,1
9455566043,9455566043,9559054043,9394670043,1
9476438043,9476438043,9559054043,9394670043,1
9497302043,9497302043,9559054043,9394670043,1
9517862045,9517862045,9559054043,9394670043,1
9538454043,9538454043,9559054043,9394670043,1
9559054043,9559054043,9559054043,9394670043,0
8640542043,8640542043,9579102043,9517862045,1
8661174047,8661174047,9579102043,9517862045,1
8681238047,8681238047,9579102043,9517862045,1
8701894047,8701894047,9579102043,9517862045,1
8722574043,8722574043,9579102043,9517862045,1
8743246046,8743246046,9579102043,9517862045,1
8763758043,8763758043,9579102043,9517862045,1
8784110043,8784110043,9579102043,9517862045,1
8804358043,8804358043,9579102043,9517862045,1
8824926043,8824926043,9579102043,9517862045,1
8845478043,8845478043,9579102043,9517862045,1
8866102043,8866102043,9579102043,9517862045,1
8886766044,8886766044,9579102043,9517862045,1
8906998043,8906998043,9579102043,9517862045,1
8927310043,8927310043,9579102043,9517862045,1
8947990047,8947990047,9579102043,9517862045,1
8968326044,8968326044,9579102043,9517862045,1
8988606044,8988606044,9579102043,9517862045,1
9008750047,9008750047,9579102043,9517862045,1
9028822047,9028822047,9579102043,9517862045,1
9049062043,9049062043,9579102043,9517862045,1
9069326047,9069326047,9579102043,9517862045,1
9089782046,9089782046,9579102043,9517862045,1
9110302043,9110302043,9579102043,9517862045,1
9130950047,9130950047,9579102043,9517862045,1
9151038043,9151038043,9579102043,9517862045,1
9171830043,9171830043,9579102043,9517862045,1
9192222045,9192222045,9579102043,9517862045,1
9212526043,9212526043,9579102043,9517862045,1
9232894043,9232894043,9579102043,9517862045,1
9252950047,9252950047,9579102043,9517862045,1
9273726043,9273726043,9579102043,9517862045,1
9293750043,9293750043,9579102043,9517862045,1
9313878044,9313878044,9579102043,9517862045,1
9334086043,9334086043,9579102043,9517862045,1
9354206047,9354206047,9579102043,9517862045,1
9374630047,9374630047,9579102043,9517862045,1
9394670043,9394670043,9579102043,9517862045,1
9414926044,9414926044,9579102043,9517862045,1
9434950045,9434950045,9579102043,9517862045,1
9455566043,9455566043,9579102043,9517862045,1
9476438043,9476438043,9579102043,9517862045,1
9497302043,9497302043,9579102043,9517862045,1
9517862045,9517862045,9579102043,9517862045,1
9538454043,9538454043,9579102043,9517862045,1
9559054043,9559054043,9579102043,9517862045,1
9579102043,9579102043,9579102043,9517862045,0
8640542043,8640542043,9599686046,9517862045,1
8661174047,8661174047,9599686046,9517862045,1
8681238047,8681238047,9599686046,9517862045,1
8701894047,8701894047,9599686046,9517862045,1
8722574043,8722574043,9599686046,9517862045,1
8743246046,8743246046,9599686046,9517862045,1
8763758043,8763758043,9599686046,9517862045,1
8784110043,8784110043,9599686046,9517862045,1
8804358043,8804358043,9599686046,9517862045,1
8824926043,8824926043,9599686046,9517862045,1
8845478043,8845478043,9599686046,9517862045,1
8866102043,8866102043,9599686046,9517862045,1
8886766044,8886766044,9599686046,9517862045,1
8906998043,8906998043,9599686046,9517862045,1
8927310043,8927310043,9599686046,9517862045,1
8947990047,8947990047,9599686046,9517862045,1
8968326044,8968326044,9599686046,9517862045,1
8988606044,8988606044,9599686046,9517862045,1
9008750047,9008750047,9599686046,9517862045,1
9028822047,9028822047,9599686046,9517862045,1
9049062043,9049062043,9599686046,9517862045,1
9069326047,9069326047,9599686046,9517862045,1
9089782046,9089782046,9599686046,9517862045,1
9110302043,9110302043,9599686046,9517862045,1
9130950047,9130950047,9599686046,9517862045,1
9151038043,9151038043,9599686046,9517862045,1
9171830043,9171830043,9599686046,9517862045,1
9192222045,9192222045,9599686046,9517862045,1
9212526043,9212526043,9599686046,9517862045,1
9232894043,9232894043,9599686046,9517862045,1
9252950047,9252950047,9599686046,9517862045,1
9273726043,9273726043,9599686046,9517862045,1
9293750043,9293750043,9599686046,9517862045,1
9313878044,9313878044,9599686046,9517862045,1
9334086043,9334086043,9599686046,9517862045,1
9354206047,9354206047,9599686046,9517862045,1
9374630047,9374630047,9599686046,9517862045,1
9394670043,9394670043,9599686046,9517862045,1
9414926044,9414926044,9599686046,9517862045,1
9434950045,9434950045,9599686046,9517862045,1
9455566043,9455566043,9599686046,9517862045,1
9476438043,9476438043,9599686046,9517862045,1
9497302043,9497302043,9599686046,9517862045,1
9517862045,9517862045,9599686046,9517862045,1
9538454043,9538454043,9599686046,9517862045,1
9559054043,9559054043,9599686046,9517862045,1
9579102043,9579102043,9599686046,9517862045,1
9599686046,9599686046,9599686046,9517862045,0
8640542043,8640542043,9619734047,9517862045,1
8661174047,8661174047,9619734047,9517862045,1
8681238047,8681238047,9619734047,9517862045,1
8701894047,8701894047,9619734047,9517862045,1
8722574043,8722574043,9619734047,9517862045,1
8743246046,8743246046,9619734047,9517862045,1
8763758043,8763758043,9619734047,9517862045,1
8784110043,8784110043,9619734047,9517862045,1
8804358043,8804358043,9619734047,9517862045,1
8824926043,8824926043,9619734047,9517862045,1
8845478043,8845478043,9619734047,9517862045,1
8866102043,8866102043,9619734047,9517862045,1
8886766044,8886766044,9619734047,9517862045,1
8906998043,8906998043,9619734047,9517862045,1
8927310043,8927310043,9619734047,9517862045,1
8947990047,8947990047,9619734047,9517862045,1
8968326044,8968326044,9619734047,9517862045,1
8988606044,8988606044,9619734047,9517862045,1
9008750047,9008750047,9619734047,9517862045,1
9028822047,9028822047,9619734047,9517862045,1
9049062043,9049062043,9619734047,9517862045,1
9069326047,9069326047,9619734047,9517862045,1
9089782046,9089782046,9619734047,9517862045,1
9110302043,9110302043,9619734047,9517862045,1
9130950047,9130950047,9619734047,9517862045,1
9151038043,9151038043,9619734047,9517862045,1
9171830043,9171830043,9619734047,9517862045,1
9192222045,9192222045,9619734047,9517862045,1
9212526043,9212526043,9619734047,9517862045,1
9232894043,9232894043,9619734047,9517862045,1
9252950047,9252950047,9619734047,9517862045,1
9273726043,9273726043,9619734047,9517862045,1
9293750043,9293750043,9619734047,9517862045,1
9313878044,9313878044,9619734047,9517862045,1
9334086043,9334086043,9619734047,9517862045,1
9354206047,9354206047,9619734047,9517862045,1
9374630047,9374630047,9619734047,9517862045,1
9394670043,9394670043,9619734047,9517862045,1
9414926044,9414926044,9619734047,9517862045,1
9434950045,9434950045,9619734047,9517862045,1
9455566043,9455566043,9619734047,9517862045,1
9476438043,9476438043,9619734047,9517862045,1
9497302043,9497302043,9619734047,9517862045,1
9517862045,9517862045,9619734047,9517862045,1
9538454043,9538454043,9619734047,9517862045,1
9559054043,9559054043,9619734047,9517862045,1
9579102043,9579102043,9619734047,9517862045,1
9599686046,9599686046,9619734047,9517862045,1
9619734047,9619734047,9619734047,9517862045,0
8640542043,8640542043,9640238047,9517862045,1
8661174047,8661174047,9640238047,9517862045,1
8681238047,8681238047,9640238047,9517862045,1
8701894047,8701894047,9640238047,9517862045,1
8722574043,8722574043,9640238047,9517862045,1
8743246046,8743246046,9640238047,9517862045,1
8763758043,8763758043,9640238047,9517862045,1
8784110043,8784110043,9640238047,9517862045,1
8804358043,8804358043,9640238047,9517862045,1
8824926043,8824926043,9640238047,9517862045,1
8845478043,8845478043,9640238047,9517862045,1
8866102043,8866102043,9640238047,9517862045,1
8886766044,8886766044,9640238047,9517862045,1
8906998043,8906998043,9640238047,9517862045,1
8927310043,8927310043,9640238047,9517862045,1
8947990047,8947990047,9640238047,9517862045,1
8968326044,8968326044,9640238047,9517862045,1
8988606044,8988606044,9640238047,9517862045,1
9008750047,9008750047,9640238047,9517862045,1
9028822047,9028822047,9640238047,9517862045,1
9049062043,9049062043,9640238047,9517862045,1
9069326047,9069326047,9640238047,9517862045,1
9089782046,9089782046,9640238047,9517862045,1
9110302043,9110302043,9640238047,9517862045,1
9130950047,9130950047,9640238047,9517862045,1
9151038043,9151038043,9640238047,9517862045,1
9171830043,9171830043,9640238047,9517862045,1
9192222045,9192222045,9640238047,9517862045,1
9212526043,9212526043,9640238047,9517862045,1
9232894043,9232894043,9640238047,9517862045,1
9252950047,9252950047,9640238047,9517862045,1
9273726043,9273726043,9640238047,9517862045,1
9293750043,9293750043,9640238047,9517862045,1
9313878044,9313878044,9640238047,9517862045,1
9334086043,9334086043,9640238047,9517862045,1
9354206047,9354206047,9640238047,9517862045,1
9374630047,9374630047,9640238047,9517862045,1
9394670043,9394670043,9640238047,9517862045,1
9414926044,9414926044,9640238047,9517862045,1
9434950045,9434950045,9640238047,9517862045,1
9455566043,9455566043,9640238047,9517862045,1
9476438043,9476438043,9640238047,9517862045,1
9497302043,9497302043,9640238047,9517862045,1
9517862045,9517862045,9640238047,9517862045,1
9538454043,9538454043,9640238047,9517862045,1
9559054043,9559054043,9640238047,9517862045,1
9579102043,9579102043,9640238047,9517862045,1
9599686046,9599686046,9640238047,9517862045,1
9619734047,9619734047,9640238047,9517862045,1
9640238047,9640238047,9640238047,9517862045,0
8640542043,8640542043,9660942043,9517862045,1
8661174047,8661174047,9660942043,9517862045,1
8681238047,8681238047,9660942043,9517862045,1
8701894047,8701894047,9660942043,9517862045,1
8722574043,8722574043,9660942043,9517862045,1
8743246046,8743246046,9660942043,9517862045,1
8763758043,8763758043,9660942043,9517862045,1
8784110043,8784110043,9660942043,9517862045,1
8804358043,8804358043,9660942043,9517862045,1
8824926043,8824926043,9660942043,9517862045,1
8845478043,8845478043,9660942043,9517862045,1
8866102043,8866102043,9660942043,9517862045,1
8886766044,8886766044,9660942043,9517862045,1
8906998043,8906998043,9660942043,9517862045,1
8927310043,8927310043,9660942043,9517862045,1
8947990047,8947990047,9660942043,9517862045,1
8968326044,8968326044,9660942043,9517862045,1
8988606044,8988606044,9660942043,9517862045,1
9008750047,9008750047,9660942043,9517862045,1
9028822047,9028822047,9660942043,9517862045,1
9049062043,9049062043,9660942043,9517862045,1
9069326047,9069326047,9660942043,9517862045,1
9089782046,9089782046,9660942043,9517862045,1
9110302043,9110302043,9660942043,9517862045,1
9130950047,9130950047,9660942043,9517862045,1
9151038043,9151038043,9660942043,9517862045,1
9171830043,9171830043,9660942043,9517862045,1
9192222045,9192222045,9660942043,9517862045,1
9212526043,9212526043,9660942043,9517862045,1
9232894043,9232894043,9660942043,9517862045,1
9252950047,9252950047,9660942043,9517862045,1
9273726043,9273726043,9660942043,9517862045,1
9293750043,9293750043,9660942043,9517862045,1
9313878044,9313878044,9660942043,9517862045,1
9334086043,9334086043,9660942043,9517862045,1
9354206047,9354206047,9660942043,9517862045,1
9374630047,9374630047,9660942043,9517862045,1
9394670043,9394670043,9660942043,9517862045,1
9414926044,9414926044,9660942043,9517862045,1
9434950045,9434950045,9660942043,9517862045,1
9455566043,9455566043,9660942043,9517862045,1
9476438043,9476438043,9660942043,9517862045,1
9497302043,9497302043,9660942043,9517862045,1
9517862045,9517862045,9660942043,9517862045,1
9538454043,9538454043,9660942043,9517862045,1
9559054043,9559054043,9660942043,9517862045,1
9579102043,9579102043,9660942043,9517862045,1
9599686046,9599686046,9660942043,9517862045,1
9619734047,9619734047,9660942043,9517862045,1
9640238047,9640238047,9660942043,9517862045,1
9660942043,9660942043,9660942043,9517862045,0
8640542043,8640542043,9681150043,9517862045,1
8661174047,8661174047,9681150043,9517862045,1
8681238047,8681238047,9681150043,9517862045,1
8701894047,8701894047,9681150043,9517862045,1
8722574043,8722574043,9681150043,9517862045,1
8743246046,8743246046,9681150043,9517862045,1
8763758043,8763758043,9681150043,9517862045,1
8784110043,8784110043,9681150043,9517862045,1
8804358043,8804358043,9681150043,9517862045,1
8824926043,8824926043,9681150043,9517862045,1
8845478043,8845478043,9681150043,9517862045,1
8866102043,8866102043,9681150043,9517862045,1
8886766044,8886766044,9681150043,9517862045,1
8906998043,8906998043,9681150043,9517862045,1
8927310043,8927310043,9681150043,9517862045,1
8947990047,8947990047,9681150043,9517862045,1
8968326044,8968326044,9681150043,9517862045,1
8988606044,8988606044,9681150043,9517862045,1
9008750047,9008750047,9681150043,9517862045,1
9028822047,9028822047,9681150043,9517862045,1
9049062043,9049062043,9681150043,9517862045,1
9069326047,9069326047,9681150043,9517862045,1
9089782046,9089782046,9681150043,9517862045,1
9110302043,9110302043,9681150043,9517862045,1
9130950047,9130950047,9681150043,9517862045,1
9151038043,9151038043,9681150043,9517862045,1
9171830043,9171830043,9681150043,9517862045,1
9192222045,9192222045,9681150043,9517862045,1
9212526043,9212526043,9681150043,9517862045,1
9232894043,9232894043,9681150043,9517862045,1
9252950047,9252950047,9681150043,9517862045,1
9273726043,9273726043,9681150043,9517862045,1
9293750043,9293750043,9681150043,9517862045,1
9313878044,9313878044,9681150043,9517862045,1
9334086043,9334086043,9681150043,9517862045,1
9354206047,9354206047,9681150043,9517862045,1
9374630047,9374630047,9681150043,9517862045,1
9394670043,9394670043,9681150043,9517862045,1
9414926044,9414926044,9681150043,9517862045,1
9434950045,9434950045,9681150043,9517862045,1
9455566043,9455566043,9681150043,9517862045,1
9476438043,9476438043,9681150043,9517862045,1
9497302043,9497302043,9681150043,9517862045,1
9517862045,9517862045,9681150043,9517862045,1
9538454043,9538454043,9681150043,9517862045,1
9559054043,9559054043,9681150043,9517862045,1
9579102043,9579102043,9681150043,9517862045,1
9599686046,9599686046,9681150043,9517862045,1
9619734047,9619734047,9681150043,9517862045,1
9640238047,9640238047,9681150043,9517862045,1
9660942043,9660942043,9681150043,9517862045,1
9681150043,9681150043,9681150043,9517862045,0
8640542043,8640542043,9701222046,9640238047,1
8661174047,8661174047,9701222046,9640238047,1
8681238047,8681238047,9701222046,9640238047,1
8701894047,8701894047,9701222046,9640238047,1
8722574043,8722574043,9701222046,9640238047,1
8743246046,8743246046,9701222046,9640238047,1
8763758043,8763758043,9701222046,9640238047,1
8784110043,8784110043,9701222046,9640238047,1
8804358043,8804358043,9701222046,9640238047,1
8824926043,8824926043,9701222046,9640238047,1
8845478043,8845478043,9701222046,9640238047,1
8866102043,8866102043,9701222046,9640238047,1
8886766044,8886766044,9701222046,9640238047,1
8906998043,8906998043,9701222046,9640238047,1
8927310043,8927310043,9701222046,9640238047,1
8947990047,8947990047,9701222046,9640238047,1
8968326044,8968326044,9701222046,9640238047,1
8988606044,8988606044,9701222046,9640238047,1
9008750047,9008750047,9701222046,9640238047,1
9028822047,9028822047,9701222046,9640238047,1
9049062043,9049062043,9701222046,9640238047,1
9069326047,9069326047,9701222046,9640238047,1
9089782046,9089782046,9701222046,9640238047,1
9110302043,9110302043,9701222046,9640238047,1
9130950047,9130950047,9701222046,9640238047,1
9151038043,9151038043,9701222046,9640238047,1
9171830043,9171830043,9701222046,9640238047,1
9192222045,9192222045,9701222046,9640238047,1
9212526043,9212526043,9701222046,9640238047,1
9232894043,9232894043,9701222046,9640238047,1
9252950047,9252950047,9701222046,9640238047,1
9273726043,9273726043,9701222046,9640238047,1
9293750043,9293750043,9701222046,9640238047,1
9313878044,9313878044,9701222046,9640238047,1
9334086043,9334086043,9701222046,9640238047,1
9354206047,9354206047,9701222046,9640238047,1
9374630047,9374630047,9701222046,9640238047,1
9394670043,9394670043,9701222046,9640238047,1
9414926044,9414926044,9701222046,9640238047,1
9434950045,9434950045,9701222046,9640238047,1
9455566043,9455566043,9701222046,9640238047,1
9476438043,9476438043,9701222046,9640238047,1
9497302043,9497302043,9701222046,9640238047,1
9517862045,9517862045,9701222046,9640238047,1
9538454043,9538454043,9701222046,9640238047,1
9559054043,9559054043,9701222046,9640238047,1
9579102043,9579102043,9701222046,9640238047,1
9599686046,9599686046,9701222046,9640238047,1
9619734047,9619734047,9701222046,9640238047,1
9640238047,9640238047,9701222046,9640238047,1
9660942043,9660942043,9701222046,9640238047,1
9681150043,9681150043,9701222046,9640238047,1
9701222046,9701222046,9701222046,9640238047,0
8640542043,8640542043,9721334044,9640238047,1
8661174047,8661174047,9721334044,9640238047,1
8681238047,8681238047,9721334044,9640238047,1
8701894047,8701894047,9721334044,9640238047,1
8722574043,8722574043,9721334044,9640238047,1
8743246046,8743246046,9721334044,9640238047,1
8763758043,8763758043,9721334044,9640238047,1
8784110043,8784110043,9721334044,9640238047,1
8804358043,8804358043,9721334044,9640238047,1
8824926043,8824926043,9721334044,9640238047,1
8845478043,8845478043,9721334044,9640238047,1
8866102043,8866102043,9721334044,9640238047,1
8886766044,8886766044,9721334044,9640238047,1
8906998043,8906998043,9721334044,9640238047,1
8927310043,8927310043,9721334044,9640238047,1
8947990047,8947990047,9721334044,9640238047,1
8968326044,8968326044,9721334044,9640238047,1
8988606044,8988606044,9721334044,9640238047,1
9008750047,9008750047,9721334044,9640238047,1
9028822047,9028822047,9721334044,9640238047,1
9049062043,9049062043,9721334044,9640238047,1
9069326047,9069326047,9721334044,9640238047,1
9089782046,9089782046,9721334044,9640238047,1
9110302043,9110302043,9721334044,9640238047,1
9130950047,9130950047,9721334044,9640238047,1
9151038043,9151038043,9721334044,9640238047,1
9171830043,9171830043,9721334044,9640238047,1
9192222045,9192222045,9721334044,9640238047,1
9212526043,9212526043,9721334044,9640238047,1
9232894043,9232894043,9721334044,9640238047,1
9252950047,9252950047,9721334044,9640238047,1
9273726043,9273726043,9721334044,9640238047,1
9293750043,9293750043,9721334044,9640238047,1
9313878044,9313878044,9721334044,9640238047,1
9334086043,9334086043,9721334044,9640238047,1
9354206047,9354206047,9721334044,9640238047,1
9374630047,9374630047,9721334044,9640238047,1
9394670043,9394670043,9721334044,9640238047,1
9414926044,9414926044,9721334044,9640238047,1
9434950045,9434950045,9721334044,9640238047,1
9455566043,9455566043,9721334044,9640238047,1
9476438043,9476438043,9721334044,9640238047,1
9497302043,9497302043,9721334044,9640238047,1
9517862045,9517862045,9721334044,9640238047,1
9538454043,9538454043,9721334044,9640238047,1
9559054043,9559054043,9721334044,9640238047,1
9579102043,9579102043,9721334044,9640238047,1
9599686046,9599686046,9721334044,9640238047,1
9619734047,9619734047,9721334044,9640238047,1
9640238047,9640238047,9721334044,9640238047,1
9660942043,9660942043,9721334044,9640238047,1
9681150043,9681150043,9721334044,9640238047,1
9701222046,9701222046,9721334044,9640238047,1
9721334044,9721334044,9721334044,9640238047,0
8640542043,8640542043,9741598043,9640238047,1
8661174047,8661174047,9741598043,9640238047,1
8681238047,8681238047,9741598043,9640238047,1
8701894047,8701894047,9741598043,9640238047,1
8722574043,8722574043,9741598043,9640238047,1
8743246046,8743246046,9741598043,9640238047,1
8763758043,8763758043,9741598043,9640238047,1
8784110043,8784110043,9741598043,9640238047,1
8804358043,8804358043,9741598043,9640238047,1
8824926043,8824926043,9741598043,9640238047,1
8845478043,8845478043,9741598043,9640238047,1
8866102043,8866102043,9741598043,9640238047,1
8886766044,8886766044,9741598043,9640238047,1
8906998043,8906998043,9741598043,9640238047,1
8927310043,8927310043,9741598043,9640238047,1
8947990047,8947990047,9741598043,9640238047,1
8968326044,8968326044,9741598043,9640238047,1
8988606044,8988606044,9741598043,9640238047,1
9008750047,9008750047,9741598043,9640238047,1
9028822047,9028822047,9741598043,9640238047,1
9049062043,9049062043,9741598043,9640238047,1
9069326047,9069326047,9741598043,9640238047,1
9089782046,9089782046,9741598043,9640238047,1
9110302043,9110302043,9741598043,9640238047,1
9130950047,9130950047,9741598043,9640238047,1
9151038043,9151038043,9741598043,9640238047,1
9171830043,9171830043,9741598043,9640238047,1
9192222045,9192222045,9741598043,9640238047,1
9212526043,9212526043,9741598043,9640238047,1
9232894043,9232894043,9741598043,9640238047,1
9252950047,9252950047,9741598043,9640238047,1
9273726043,9273726043,9741598043,9640238047,1
9293750043,9293750043,9741598043,9640238047,1
9313878044,9313878044,9741598043,9640238047,1
9334086043,9334086043,9741598043,9640238047,1
9354206047,9354206047,9741598043,9640238047,1
9374630047,9374630047,9741598043,9640238047,1
9394670043,9394670043,9741598043,9640238047,1
9414926044,9414926044,9741598043,9640238047,1
9434950045,9434950045,9741598043,9640238047,1
9455566043,9455566043,9741598043,9640238047,1
9476438043,9476438043,9741598043,9640238047,1
9497302043,9497302043,9741598043,9640238047,1
9517862045,9517862045,9741598043,9640238047,1
9538454043,9538454043,9741598043,9640238047,1
9559054043,9559054043,9741598043,9640238047,1
9579102043,9579102043,9741598043,9640238047,1
9599686046,9599686046,9741598043,9640238047,1
9619734047,9619734047,9741598043,9640238047,1
9640238047,9640238047,9741598043,9640238047,1
9660942043,9660942043,9741598043,9640238047,1
9681150043,9681150043,9741598043,9640238047,1
9701222046,9701222046,9741598043,9640238047,1
9721334044,9721334044,9741598043,9640238047,1
9741598043,9741598043,9741598043,9640238047,0
8640542043,8640542043,9761718043,9640238047,1
8661174047,8661174047,9761718043,9640238047,1
8681238047,8681238047,9761718043,9640238047,1
8701894047,8701894047,9761718043,9640238047,1
8722574043,8722574043,9761718043,9640238047,1
8743246046,8743246046,9761718043,9640238047,1
8763758043,8763758043,9761718043,9640238047,1
8784110043,8784110043,9761718043,9640238047,1
8804358043,8804358043,9761718043,9640238047,1
8824926043,8824926043,9761718043,9640238047,1
8845478043,8845478043,9761718043,9640238047,1
8866102043,8866102043,9761718043,9640238047,1
8886766044,8886766044,9761718043,9640238047,1
8906998043,8906998043,9761718043,9640238047,1
8927310043,8927310043,9761718043,9640238047,1
8947990047,8947990047,9761718043,9640238047,1
8968326044,8968326044,9761718043,9640238047,1
8988606044,8988606044,9761718043,9640238047,1
9008750047,9008750047,9761718043,9640238047,1
9028822047,9028822047,9761718043,9640238047,1
9049062043,9049062043,9761718043,9640238047,1
9069326047,9069326047,9761718043,9640238047,1
9089782046,9089782046,9761718043,9640238047,1
9110302043,9110302043,9761718043,9640238047,1
9130950047,9130950047,9761718043,9640238047,1
9151038043,9151038043,9761718043,9640238047,1
9171830043,9171830043,9761718043,9640238047,1
9192222045,9192222045,9761718043,9640238047,1
9212526043,9212526043,9761718043,9640238047,1
9232894043,9232894043,9761718043,9640238047,1
9252950047,9252950047,9761718043,9640238047,1
9273726043,9273726043,9761718043,9640238047,1
9293750043,9293750043,9761718043,9640238047,1
9313878044,9313878044,9761718043,9640238047,1
9334086043,9334086043,9761718043,9640238047,1
9354206047,9354206047,9761718043,9640238047,1
9374630047,9374630047,9761718043,9640238047,1
9394670043,9394670043,9761718043,9640238047,1
9414926044,9414926044,9761718043,9640238047,1
9434950045,9434950045,9761718043,9640238047,1
9455566043,9455566043,9761718043,9640238047,1
9476438043,9476438043,9761718043,9640238047,1
9497302043,9497302043,9761718043,9640238047,1
9517862045,9517862045,9761718043,9640238047,1
9538454043,9538454043,9761718043,9640238047,1
9559054043,9559054043,9761718043,9640238047,1
9579102043,9579102043,9761718043,9640238047,1
9599686046,9599686046,9761718043,9640238047,1
9619734047,9619734047,9761718043,9640238047,1
9640238047,9640238047,9761718043,9640238047,1
9660942043,9660942043,9761718043,9640238047,1
9681150043,9681150043,9761718043,9640238047,1
9701222046,9701222046,9761718043,9640238047,1
9721334044,9721334044,9761718043,9640238047,1
9741598043,9741598043,9761718043,9640238047,1
9761718043,9761718043,9761718043,9640238047,0
8640542043,8640542043,9782534047,9640238047,1
8661174047,8661174047,9782534047,9640238047,1
8681238047,8681238047,9782534047,9640238047,1
8701894047,8701894047,9782534047,9640238047,1
8722574043,8722574043,9782534047,9640238047,1
8743246046,8743246046,9782534047,9640238047,1
8763758043,8763758043,9782534047,9640238047,1
8784110043,8784110043,9782534047,9640238047,1
8804358043,8804358043,9782534047,9640238047,1
8824926043,8824926043,9782534047,9640238047,1
8845478043,8845478043,9782534047,9640238047,1
8866102043,8866102043,9782534047,9640238047,1
8886766044,8886766044,9782534047,9640238047,1
8906998043,8906998043,9782534047,9640238047,1
8927310043,8927310043,9782534047,9640238047,1
8947990047,8947990047,9782534047,9640238047,1
8968326044,8968326044,9782534047,9640238047,1
8988606044,8988606044,9782534047,9640238047,1
9008750047,9008750047,9782534047,9640238047,1
9028822047,9028822047,9782534047,9640238047,1
9049062043,9049062043,9782534047,9640238047,1
9069326047,9069326047,9782534047,9640238047,1
9089782046,9089782046,9782534047,9640238047,1
9110302043,9110302043,9782534047,9640238047,1
9130950047,9130950047,9782534047,9640238047,1
9151038043,9151038043,9782534047,9640238047,1
9171830043,9171830043,9782534047,9640238047,1
9192222045,9192222045,9782534047,9640238047,1
9212526043,9212526043,9782534047,9640238047,1
9232894043,9232894043,9782534047,9640238047,1
9252950047,9252950047,9782534047,9640238047,1
9273726043,9273726043,9782534047,9640238047,1
9293750043,9293750043,9782534047,9640238047,1
9313878044,9313878044,9782534047,9640238047,1
9334086043,9334086043,9782534047,9640238047,1
9354206047,9354206047,9782534047,9640238047,1
9374630047,9374630047,9782534047,9640238047,1
9394670043,9394670043,9782534047,9640238047,1
9414926044,9414926044,9782534047,9640238047,1
9434950045,9434950045,9782534047,9640238047,1
9455566043,9455566043,9782534047,9640238047,1
9476438043,9476438043,9782534047,9640238047,1
9497302043,9497302043,9782534047,9640238047,1
9517862045,9517862045,9782534047,9640238047,1
9538454043,9538454043,9782534047,9640238047,1
9559054043,9559054043,9782534047,9640238047,1
9579102043,9579102043,9782534047,9640238047,1
9599686046,9599686046,9782534047,9640238047,1
9619734047,9619734047,9782534047,9640238047,1
9640238047,9640238047,9782534047,9640238047,1
9660942043,9660942043,9782534047,9640238047,1
9681150043,9681150043,9782534047,9640238047,1
9701222046,9701222046,9782534047,9640238047,1
9721334044,9721334044,9782534047,9640238047,1
9741598043,9741598043,9782534047,9640238047,1
9761718043,9761718043,9782534047,9640238047,1
9782534047,9782534047,9782534047,9640238047,0
8640542043,8640542043,9802894046,9640238047,1
8661174047,8661174047,9802894046,9640238047,1
8681238047,8681238047,9802894046,9640238047,1
8701894047,8701894047,9802894046,9640238047,1
8722574043,8722574043,9802894046,9640238047,1
8743246046,8743246046,9802894046,9640238047,1
8763758043,8763758043,9802894046,9640238047,1
8784110043,8784110043,9802894046,9640238047,1
8804358043,8804358043,9802894046,9640238047,1
8824926043,8824926043,9802894046,9640238047,1
8845478043,8845478043,9802894046,9640238047,1
8866102043,8866102043,9802894046,9640238047,1
8886766044,8886766044,9802894046,9640238047,1
8906998043,8906998043,9802894046,9640238047,1
8927310043,8927310043,9802894046,9640238047,1
8947990047,8947990047,9802894046,9640238047,1
8968326044,8968326044,9802894046,9640238047,1
8988606044,8988606044,9802894046,9640238047,1
9008750047,9008750047,9802894046,9640238047,1
9028822047,9028822047,9802894046,9640238047,1
9049062043,9049062043,9802894046,9640238047,1
9069326047,9069326047,9802894046,9640238047,1
9089782046,9089782046,9802894046,9640238047,1
9110302043,9110302043,9802894046,9640238047,1
9130950047,9130950047,9802894046,9640238047,1
9151038043,9151038043,9802894046,9640238047,1
9171830043,9171830043,9802894046,9640238047,1
9192222045,9192222045,9802894046,9640238047,1
9212526043,9212526043,9802894046,9640238047,1
9232894043,9232894043,9802894046,9640238047,1
9252950047,9252950047,9802894046,9640238047,1
9273726043,9273726043,9802894046,9640238047,1
9293750043,9293750043,9802894046,9640238047,1
9313878044,9313878044,9802894046,9640238047,1
9334086043,9334086043,9802894046,9640238047,1
9354206047,9354206047,9802894046,9640238047,1
9374630047,9374630047,9802894046,9640238047,1
9394670043,9394670043,9802894046,9640238047,1
9414926044,9414926044,9802894046,9640238047,1
9434950045,9434950045,9802894046,9640238047,1
9455566043,9455566043,9802894046,9640238047,1
9476438043,9476438043,9802894046,9640238047,1
9497302043,9497302043,9802894046,9640238047,1
9517862045,9517862045,9802894046,9640238047,1
9538454043,9538454043,9802894046,9640238047,1
9559054043,9559054043,9802894046,9640238047,1
9579102043,9579102043,9802894046,9640238047,1
9599686046,9599686046,9802894046,9640238047,1
9619734047,9619734047,9802894046,9640238047,1
9640238047,9640238047,9802894046,9640238047,1
9660942043,9660942043,9802894046,9640238047,1
9681150043,9681150043,9802894046,9640238047,1
9701222046,9701222046,9802894046,9640238047,1
9721334044,9721334044,9802894046,9640238047,1
9741598043,9741598043,9802894046,9640238047,1
9761718043,9761718043,9802894046,9640238047,1
9782534047,9782534047,9802894046,9640238047,1
9802894046,9802894046,9802894046,9640238047,0
8640542043,8640542043,9823366043,9761718043,1
8661174047,8661174047,9823366043,9761718043,1
8681238047,8681238047,9823366043,9761718043,1
8701894047,8701894047,9823366043,9761718043,1
8722574043,8722574043,9823366043,9761718043,1
8743246046,8743246046,9823366043,9761718043,1
8763758043,8763758043,9823366043,9761718043,1
8784110043,8784110043,9823366043,9761718043,1
8804358043,8804358043,9823366043,9761718043,1
8824926043,8824926043,9823366043,9761718043,1
8845478043,8845478043,9823366043,9761718043,1
8866102043,8866102043,9823366043,9761718043,1
8886766044,8886766044,9823366043,9761718043,1
8906998043,8906998043,9823366043,9761718043,1
8927310043,8927310043,9823366043,9761718043,1
8947990047,8947990047,9823366043,9761718043,1
8968326044,8968326044,9823366043,9761718043,1
8988606044,8988606044,9823366043,9761718043,1
9008750047,9008750047,9823366043,9761718043,1
9028822047,9028822047,9823366043,9761718043,1
9049062043,9049062043,9823366043,9761718043,1
9069326047,9069326047,9823366043,9761718043,1
9089782046,9089782046,9823366043,9761718043,1
9110302043,9110302043,9823366043,9761718043,1
9130950047,9130950047,9823366043,9761718043,1
9151038043,9151038043,9823366043,9761718043,1
9171830043,9171830043,9823366043,9761718043,1
9192222045,9192222045,9823366043,9761718043,1
9212526043,9212526043,9823366043,9761718043,1
9232894043,9232894043,9823366043,9761718043,1
9252950047,9252950047,9823366043,9761718043,1
9273726043,9273726043,9823366043,9761718043,1
9293750043,9293750043,9823366043,9761718043,1
9313878044,9313878044,9823366043,9761718043,1
9334086043,9334086043,9823366043,9761718043,1
9354206047,9354206047,9823366043,9761718043,1
9374630047,9374630047,9823366043,9761718043,1
9394670043,9394670043,9823366043,9761718043,1
9414926044,9414926044,9823366043,9761718043,1
9434950045,9434950045,9823366043,9761718043,1
9455566043,9455566043,9823366043,9761718043,1
9476438043,9476438043,9823366043,9761718043,1
9497302043,9497302043,9823366043,9761718043,1
9517862045,9517862045,9823366043,9761718043,1
9538454043,9538454043,9823366043,9761718043,1
9559054043,9559054043,9823366043,9761718043,1
9579102043,9579102043,9823366043,9761718043,1
9599686046,9599686046,9823366043,9761718043,1
9619734047,9619734047,9823366043,9761718043,1
9640238047,9640238047,9823366043,9761718043,1
9660942043,9660942043,9823366043,9761718043,1
9681150043,9681150043,9823366043,9761718043,1
9701222046,9701222046,9823366043,9761718043,1
9721334044,9721334044,9823366043,9761718043,1
9741598043,9741598043,9823366043,9761718043,1
9761718043,9761718043,9823366043,9761718043,1
9782534047,9782534047,9823366043,9761718043,1
9802894046,9802894046,9823366043,9761718043,1
9823366043,9823366043,9823366043,9761718043,0
8640542043,8640542043,9843638043,9761718043,1
8661174047,8661174047,9843638043,9761718043,1
8681238047,8681238047,9843638043,9761718043,1
8701894047,8701894047,9843638043,9761718043,1
8722574043,8722574043,9843638043,9761718043,1
8743246046,8743246046,9843638043,9761718043,1
8763758043,8763758043,9843638043,9761718043,1
8784110043,8784110043,9843638043,9761718043,1
8804358043,8804358043,9843638043,9761718043,1
8824926043,8824926043,9843638043,9761718043,1
8845478043,8845478043,9843638043,9761718043,1
8866102043,8866102043,9843638043,9761718043,1
8886766044,8886766044,9843638043,9761718043,1
8906998043,8906998043,9843638043,9761718043,1
8927310043,8927310043,9843638043,9761718043,1
8947990047,8947990047,9843638043,9761718043,1
8968326044,8968326044,9843638043,9761718043,1
8988606044,8988606044,9843638043,9761718043,1
9008750047,9008750047,9843638043,9761718043,1
9028822047,9028822047,9843638043,9761718043,1
9049062043,9049062043,9843638043,9761718043,1
9069326047,9069326047,9843638043,9761718043,1
9089782046,9089782046,9843638043,9761718043,1
9110302043,9110302043,9843638043,9761718043,1
9130950047,9130950047,9843638043,9761718043,1
9151038043,9151038043,9843638043,9761718043,1
9171830043,9171830043,9843638043,9761718043,1
9192222045,9192222045,9843638043,9761718043,1
9212526043,9212526043,9843638043,9761718043,1
9232894043,9232894043,9843638043,9761718043,1
9252950047,9252950047,9843638043,9761718043,1
9273726043,9273726043,9843638043,9761718043,1
9293750043,9293750043,9843638043,9761718043,1
9313878044,9313878044,9843638043,9761718043,1
9334086043,9334086043,9843638043,9761718043,1
9354206047,9354206047,9843638043,9761718043,1
9374630047,9374630047,9843638043,9761718043,1
9394670043,9394670043,9843638043,9761718043,1
9414926044,9414926044,9843638043,9761718043,1
9434950045,9434950045,9843638043,9761718043,1
9455566043,9455566043,9843638043,9761718043,1
9476438043,9476438043,9843638043,9761718043,1
9497302043,9497302043,9843638043,9761718043,1
9517862045,9517862045,9843638043,9761718043,1
9538454043,9538454043,9843638043,9761718043,1
9559054043,9559054043,9843638043,9761718043,1
9579102043,9579102043,9843638043,9761718043,1
9599686046,9599686046,9843638043,9761718043,1
9619734047,9619734047,9843638043,9761718043,1
9640238047,9640238047,9843638043,9761718043,1
9660942043,9660942043,9843638043,9761718043,1
9681150043,9681150043,9843638043,9761718043,1
9701222046,9701222046,9843638043,9761718043,1
9721334044,9721334044,9843638043,9761718043,1
9741598043,9741598043,9843638043,9761718043,1
9761718043,9761718043,9843638043,9761718043,1
9782534047,9782534047,9843638043,9761718043,1
9802894046,9802894046,9843638043,9761718043,1
9823366043,9823366043,9843638043,9761718043,1
9843638043,9843638043,9843638043,9761718043,0
8640542043,8640542043,9863678047,9761718043,1
8661174047,8661174047,9863678047,9761718043,1
8681238047,8681238047,9863678047,9761718043,1
8701894047,8701894047,9863678047,9761718043,1
8722574043,8722574043,9863678047,9761718043,1
8743246046,8743246046,9863678047,9761718043,1
8763758043,8763758043,9863678047,9761718043,1
8784110043,8784110043,9863678047,9761718043,1
8804358043,8804358043,9863678047,9761718043,1
8824926043,8824926043,9863678047,9761718043,1
8845478043,8845478043,9863678047,9761718043,1
8866102043,8866102043,9863678047,9761718043,1
8886766044,8886766044,9863678047,9761718043,1
8906998043,8906998043,9863678047,9761718043,1
8927310043,8927310043,9863678047,9761718043,1
8947990047,8947990047,9863678047,9761718043,1
8968326044,8968326044,9863678047,9761718043,1
8988606044,8988606044,9863678047,9761718043,1
9008750047,9008750047,9863678047,9761718043,1
9028822047,9028822047,9863678047,9761718043,1
9049062043,9049062043,9863678047,9761718043,1
9069326047,9069326047,9863678047,9761718043,1
9089782046,9089782046,9863678047,9761718043,1
9110302043,9110302043,9863678047,9761718043,1
9130950047,9130950047,9863678047,9761718043,1
9151038043,9151038043,9863678047,9761718043,1
9171830043,9171830043,9863678047,9761718043,1
9192222045,9192222045,9863678047,9761718043,1
9212526043,9212526043,9863678047,9761718043,1
9232894043,9232894043,9863678047,9761718043,1
9252950047,9252950047,9863678047,9761718043,1
9273726043,9273726043,9863678047,9761718043,1
9293750043,9293750043,9863678047,9761718043,1
9313878044,9313878044,9863678047,9761718043,1
9334086043,9334086043,9863678047,9761718043,1
9354206047,9354206047,9863678047,9761718043,1
9374630047,9374630047,9863678047,9761718043,1
9394670043,9394670043,9863678047,9761718043,1
9414926044,9414926044,9863678047,9761718043,1
9434950045,9434950045,9863678047,9761718043,1
9455566043,9455566043,9863678047,9761718043,1
9476438043,9476438043,9863678047,9761718043,1
9497302043,9497302043,9863678047,9761718043,1
9517862045,9517862045,9863678047,9761718043,1
9538454043,9538454043,9863678047,9761718043,1
9559054043,9559054043,9863678047,9761718043,1
9579102043,9579102043,9863678047,9761718043,1
9599686046,9599686046,9863678047,9761718043,1
9619734047,9619734047,9863678047,9761718043,1
9640238047,9640238047,9863678047,9761718043,1
9660942043,9660942043,9863678047,9761718043,1
9681150043,9681150043,9863678047,9761718043,1
9701222046,9701222046,9863678047,9761718043,1
9721334044,9721334044,9863678047,9761718043,1
9741598043,9741598043,9863678047,9761718043,1
9761718043,9761718043,9863678047,9761718043,1
9782534047,9782534047,9863678047,9761718043,1
9802894046,9802894046,9863678047,9761718043,1
9823366043,9823366043,9863678047,9761718043,1
9843638043,9843638043,9863678047,9761718043,1
9863678047,9863678047,9863678047,9761718043,0
8640542043,8640542043,9884126047,9761718043,1
8661174047,8661174047,9884126047,9761718043,1
8681238047,8681238047,9884126047,9761718043,1
8701894047,8701894047,9884126047,9761718043,1
8722574043,8722574043,9884126047,9761718043,1
8743246046,8743246046,9884126047,9761718043,1
8763758043,8763758043,9884126047,9761718043,1
8784110043,8784110043,9884126047,9761718043,1
8804358043,8804358043,9884126047,9761718043,1
8824926043,8824926043,9884126047,9761718043,1
8845478043,8845478043,9884126047,9761718043,1
8866102043,8866102043,9884126047,9761718043,1
8886766044,8886766044,9884126047,9761718043,1
8906998043,8906998043,9884126047,9761718043,1
8927310043,8927310043,9884126047,9761718043,1
8947990047,8947990047,9884126047,9761718043,1
8968326044,8968326044,9884126047,9761718043,1
8988606044,8988606044,9884126047,9761718043,1
9008750047,9008750047,9884126047,9761718043,1
9028822047,9028822047,9884126047,9761718043,1
9049062043,9049062043,9884126047,9761718043,1
9069326047,9069326047,9884126047,9761718043,1
9089782046,9089782046,9884126047,9761718043,1
9110302043,9110302043,9884126047,9761718043,1
9130950047,9130950047,9884126047,9761718043,1
9151038043,9151038043,9884126047,9761718043,1
9171830043,9171830043,9884126047,9761718043,1
9192222045,9192222045,9884126047,9761718043,1
9212526043,9212526043,9884126047,9761718043,1
9232894043,9232894043,9884126047,9761718043,1
9252950047,9252950047,9884126047,9761718043,1
9273726043,9273726043,9884126047,9761718043,1
9293750043,9293750043,9884126047,9761718043,1
9313878044,9313878044,9884126047,9761718043,1
9334086043,9334086043,9884126047,9761718043,1
9354206047,9354206047,9884126047,9761718043,1
9374630047,9374630047,9884126047,9761718043,1
9394670043,9394670043,9884126047,9761718043,1
9414926044,9414926044,9884126047,9761718043,1
9434950045,9434950045,9884126047,9761718043,1
9455566043,9455566043,9884126047,9761718043,1
9476438043,9476438043,9884126047,9761718043,1
9497302043,9497302043,9884126047,9761718043,1
9517862045,9517862045,9884126047,9761718043,1
9538454043,9538454043,9884126047,9761718043,1
9559054043,9559054043,9884126047,9761718043,1
9579102043,9579102043,9884126047,9761718043,1
9599686046,9599686046,9884126047,9761718043,1
9619734047,9619734047,9884126047,9761718043,1
9640238047,9640238047,9884126047,9761718043,1
9660942043,9660942043,9884126047,9761718043,1
9681150043,9681150043,9884126047,9761718043,1
9701222046,9701222046,9884126047,9761718043,1
9721334044,9721334044,9884126047,9761718043,1
9741598043,9741598043,9884126047,9761718043,1
9761718043,9761718043,9884126047,9761718043,1
9782534047,9782534047,9884126047,9761718043,1
9802894046,9802894046,9884126047,9761718043,1
9823366043,9823366043,9884126047,9761718043,1
9843638043,9843638043,9884126047,9761718043,1
9863678047,9863678047,9884126047,9761718043,1
9884126047,9884126047,9884126047,9761718043,0
8640542043,8640542043,9904438046,9761718043,1
8661174047,8661174047,9904438046,9761718043,1
8681238047,8681238047,9904438046,9761718043,1
8701894047,8701894047,9904438046,9761718043,1
8722574043,8722574043,9904438046,9761718043,1
8743246046,8743246046,9904438046,9761718043,1
8763758043,8763758043,9904438046,9761718043,1
8784110043,8784110043,9904438046,9761718043,1
8804358043,8804358043,9904438046,9761718043,1
8824926043,8824926043,9904438046,9761718043,1
8845478043,8845478043,9904438046,9761718043,1
8866102043,8866102043,9904438046,9761718043,1
8886766044,8886766044,9904438046,9761718043,1
8906998043,8906998043,9904438046,9761718043,1
8927310043,8927310043,9904438046,9761718043,1
8947990047,8947990047,9904438046,9761718043,1
8968326044,8968326044,9904438046,9761718043,1
8988606044,8988606044,9904438046,9761718043,1
9008750047,9008750047,9904438046,9761718043,1
9028822047,9028822047,9904438046,9761718043,1
9049062043,9049062043,9904438046,9761718043,1
9069326047,9069326047,9904438046,9761718043,1
9089782046,9089782046,9904438046,9761718043,1
9110302043,9110302043,9904438046,9761718043,1
9130950047,9130950047,9904438046,9761718043,1
9151038043,9151038043,9904438046,9761718043,1
9171830043,9171830043,9904438046,9761718043,1
9192222045,9192222045,9904438046,9761718043,1
9212526043,9212526043,9904438046,9761718043,1
9232894043,9232894043,9904438046,9761718043,1
9252950047,9252950047,9904438046,9761718043,1
9273726043,9273726043,9904438046,9761718043,1
9293750043,9293750043,9904438046,9761718043,1
9313878044,9313878044,9904438046,9761718043,1
9334086043,9334086043,9904438046,9761718043,1
9354206047,9354206047,9904438046,9761718043,1
9374630047,9374630047,9904438046,9761718043,1
9394670043,9394670043,9904438046,9761718043,1
9414926044,9414926044,9904438046,9761718043,1
9434950045,9434950045,9904438046,9761718043,1
9455566043,9455566043,9904438046,9761718043,1
9476438043,9476438043,9904438046,9761718043,1
9497302043,9497302043,9904438046,9761718043,1
9517862045,9517862045,9904438046,9761718043,1
9538454043,9538454043,9904438046,9761718043,1
9559054043,9559054043,9904438046,9761718043,1
9579102043,9579102043,9904438046,9761718043,1
9599686046,9599686046,9904438046,9761718043,1
9619734047,9619734047,9904438046,9761718043,1
9640238047,9640238047,9904438046,9761718043,1
9660942043,9660942043,9904438046,9761718043,1
9681150043,9681150043,9904438046,9761718043,1
9701222046,9701222046,9904438046,9761718043,1
9721334044,9721334044,9904438046,9761718043,1
9741598043,9741598043,9904438046,9761718043,1
9761718043,9761718043,9904438046,9761718043,1
9782534047,9782534047,9904438046,9761718043,1
9802894046,9802894046,9904438046,9761718043,1
9823366043,9823366043,9904438046,9761718043,1
9843638043,9843638043,9904438046,9761718043,1
9863678047,9863678047,9904438046,9761718043,1
9884126047,9884126047,9904438046,9761718043,1
9904438046,9904438046,9904438046,9761718043,0
8640542043,8640542043,9924894043,9761718043,1
8661174047,8661174047,9924894043,9761718043,1
8681238047,8681238047,9924894043,9761718043,1
8701894047,8701894047,9924894043,9761718043,1
8722574043,8722574043,9924894043,9761718043,1
8743246046,8743246046,9924894043,9761718043,1
8763758043,8763758043,9924894043,9761718043,1
8784110043,8784110043,9924894043,9761718043,1
8804358043,8804358043,9924894043,9761718043,1
8824926043,8824926043,9924894043,9761718043,1
8845478043,8845478043,9924894043,9761718043,1
8866102043,8866102043,9924894043,9761718043,1
8886766044,8886766044,9924894043,9761718043,1
8906998043,8906998043,9924894043,9761718043,1
8927310043,8927310043,9924894043,9761718043,1
8947990047,8947990047,9924894043,9761718043,1
8968326044,8968326044,9924894043,9761718043,1
8988606044,8988606044,9924894043,9761718043,1
9008750047,9008750047,9924894043,9761718043,1
9028822047,9028822047,9924894043,9761718043,1
9049062043,9049062043,9924894043,9761718043,1
9069326047,9069326047,9924894043,9761718043,1
9089782046,9089782046,9924894043,9761718043,1
9110302043,9110302043,9924894043,9761718043,1
9130950047,9130950047,9924894043,9761718043,1
9151038043,9151038043,9924894043,9761718043,1
9171830043,9171830043,9924894043,9761718043,1
9192222045,9192222045,9924894043,9761718043,1
9212526043,9212526043,9924894043,9761718043,1
9232894043,9232894043,9924894043,9761718043,1
9252950047,9252950047,9924894043,9761718043,1
9273726043,9273726043,9924894043,9761718043,1
9293750043,9293750043,9924894043,9761718043,1
9313878044,9313878044,9924894043,9761718043,1
9334086043,9334086043,9924894043,9761718043,1
9354206047,9354206047,9924894043,9761718043,1
9374630047,9374630047,9924894043,9761718043,1
9394670043,9394670043,9924894043,9761718043,1
9414926044,9414926044,9924894043,9761718043,1
9434950045,9434950045,9924894043,9761718043,1
9455566043,9455566043,9924894043,9761718043,1
9476438043,9476438043,9924894043,9761718043,1
9497302043,9497302043,9924894043,9761718043,1
9517862045,9517862045,9924894043,9761718043,1
9538454043,9538454043,9924894043,9761718043,1
9559054043,9559054043,9924894043,9761718043,1
9579102043,9579102043,9924894043,9761718043,1
9599686046,9599686046,9924894043,9761718043,1
9619734047,9619734047,9924894043,9761718043,1
9640238047,9640238047,9924894043,9761718043,1
9660942043,9660942043,9924894043,9761718043,1
9681150043,9681150043,9924894043,9761718043,1
9701222046,9701222046,9924894043,9761718043,1
9721334044,9721334044,9924894043,9761718043,1
9741598043,9741598043,9924894043,9761718043,1
9761718043,9761718043,9924894043,9761718043,1
9782534047,9782534047,9924894043,9761718043,1
9802894046,9802894046,9924894043,9761718043,1
9823366043,9823366043,9924894043,9761718043,1
9843638043,9843638043,9924894043,9761718043,1
9863678047,9863678047,9924894043,9761718043,1
9884126047,9884126047,9924894043,9761718043,1
9904438046,9904438046,9924894043,9761718043,1
9924894043,9924894043,9924894043,9761718043,0
8640542043,8640542043,9945006043,9884126047,1
8661174047,8661174047,9945006043,9884126047,1
8681238047,8681238047,9945006043,9884126047,1
8701894047,8701894047,9945006043,9884126047,1
8722574043,8722574043,9945006043,9884126047,1
8743246046,8743246046,9945006043,9884126047,1
8763758043,8763758043,9945006043,9884126047,1
8784110043,8784110043,9945006043,9884126047,1
8804358043,8804358043,9945006043,9884126047,1
8824926043,8824926043,9945006043,9884126047,1
8845478043,8845478043,9945006043,9884126047,1
8866102043,8866102043,9945006043,9884126047,1
8886766044,8886766044,9945006043,9884126047,1
8906998043,8906998043,9945006043,9884126047,1
8927310043,8927310043,9945006043,9884126047,1
8947990047,8947990047,9945006043,9884126047,1
8968326044,8968326044,9945006043,9884126047,1
8988606044,8988606044,9945006043,9884126047,1
9008750047,9008750047,9945006043,9884126047,1
9028822047,9028822047,9945006043,9884126047,1
9049062043,9049062043,9945006043,9884126047,1
9069326047,9069326047,9945006043,9884126047,1
9089782046,9089782046,9945006043,9884126047,1
9110302043,9110302043,9945006043,9884126047,1
9130950047,9130950047,9945006043,9884126047,1
9151038043,9151038043,9945006043,9884126047,1
9171830043,9171830043,9945006043,9884126047,1
9192222045,9192222045,9945006043,9884126047,1
9212526043,9212526043,9945006043,9884126047,1
9232894043,9232894043,9945006043,9884126047,1
9252950047,9252950047,9945006043,9884126047,1
9273726043,9273726043,9945006043,9884126047,1
9293750043,9293750043,9945006043,9884126047,1
9313878044,9313878044,9945006043,9884126047,1
9334086043,9334086043,9945006043,9884126047,1
9354206047,9354206047,9945006043,9884126047,1
9374630047,9374630047,9945006043,9884126047,1
9394670043,9394670043,9945006043,9884126047,1
9414926044,9414926044,9945006043,9884126047,1
9434950045,9434950045,9945006043,9884126047,1
9455566043,9455566043,9945006043,9884126047,1
9476438043,9476438043,9945006043,9884126047,1
9497302043,9497302043,9945006043,9884126047,1
9517862045,9517862045,9945006043,9884126047,1
9538454043,9538454043,9945006043,9884126047,1
9559054043,9559054043,9945006043,9884126047,1
9579102043,9579102043,9945006043,9884126047,1
9599686046,9599686046,9945006043,9884126047,1
9619734047,9619734047,9945006043,9884126047,1
9640238047,9640238047,9945006043,9884126047,1
9660942043,9660942043,9945006043,9884126047,1
9681150043,9681150043,9945006043,9884126047,1
9701222046,9701222046,9945006043,9884126047,1
9721334044,9721334044,9945006043,9884126047,1
9741598043,9741598043,9945006043,9884126047,1
9761718043,9761718043,9945006043,9884126047,1
9782534047,9782534047,9945006043,9884126047,1
9802894046,9802894046,9945006043,9884126047,1
9823366043,9823366043,9945006043,9884126047,1
9843638043,9843638043,9945006043,9884126047,1
9863678047,9863678047,9945006043,9884126047,1
9884126047,9884126047,9945006043,9884126047,1
9904438046,9904438046,9945006043,9884126047,1
9924894043,9924894043,9945006043,9884126047,1
9945006043,9945006043,9945006043,9884126047,0
8640542043,8640542043,9965182047,9884126047,1
8661174047,8661174047,9965182047,9884126047,1
8681238047,8681238047,9965182047,9884126047,1
8701894047,8701894047,9965182047,9884126047,1
8722574043,8722574043,9965182047,9884126047,1
8743246046,8743246046,9965182047,9884126047,1
8763758043,8763758043,9965182047,9884126047,1
8784110043,8784110043,9965182047,9884126047,1
8804358043,8804358043,9965182047,9884126047,1
8824926043,8824926043,9965182047,9884126047,1
8845478043,8845478043,9965182047,9884126047,1
8866102043,8866102043,9965182047,9884126047,1
8886766044,8886766044,9965182047,9884126047,1
8906998043,8906998043,9965182047,9884126047,1
8927310043,8927310043,9965182047,9884126047,1
8947990047,8947990047,9965182047,9884126047,1
8968326044,8968326044,9965182047,9884126047,1
8988606044,8988606044,9965182047,9884126047,1
9008750047,9008750047,9965182047,9884126047,1
9028822047,9028822047,9965182047,9884126047,1
9049062043,9049062043,9965182047,9884126047,1
9069326047,9069326047,9965182047,9884126047,1
9089782046,9089782046,9965182047,9884126047,1
9110302043,9110302043,9965182047,9884126047,1
9130950047,9130950047,9965182047,9884126047,1
9151038043,9151038043,9965182047,9884126047,1
9171830043,9171830043,9965182047,9884126047,1
9192222045,9192222045,9965182047,9884126047,1
9212526043,9212526043,9965182047,9884126047,1
9232894043,9232894043,9965182047,9884126047,1
9252950047,9252950047,9965182047,9884126047,1
9273726043,9273726043,9965182047,9884126047,1
9293750043,9293750043,9965182047,9884126047,1
9313878044,9313878044,9965182047,9884126047,1
9334086043,9334086043,9965182047,9884126047,1
9354206047,9354206047,9965182047,9884126047,1
9374630047,9374630047,9965182047,9884126047,1
9394670043,9394670043,9965182047,9884126047,1
9414926044,9414926044,9965182047,9884126047,1
9434950045,9434950045,9965182047,9884126047,1
9455566043,9455566043,9965182047,9884126047,1
9476438043,9476438043,9965182047,9884126047,1
9497302043,9497302043,9965182047,9884126047,1
9517862045,9517862045,9965182047,9884126047,1
9538454043,9538454043,9965182047,9884126047,1
9559054043,9559054043,9965182047,9884126047,1
9579102043,9579102043,9965182047,9884126047,1
9599686046,9599686046,9965182047,9884126047,1
9619734047,9619734047,9965182047,9884126047,1
9640238047,9640238047,9965182047,9884126047,1
9660942043,9660942043,9965182047,9884126047,1
9681150043,9681150043,9965182047,9884126047,1
9701222046,9701222046,9965182047,9884126047,1
9721334044,9721334044,9965182047,9884126047,1
9741598043,9741598043,9965182047,9884126047,1
9761718043,9761718043,9965182047,9884126047,1
9782534047,9782534047,9965182047,9884126047,1
9802894046,9802894046,9965182047,9884126047,1
9823366043,9823366043,9965182047,9884126047,1
9843638043,9843638043,9965182047,9884126047,1
9863678047,9863678047,9965182047,9884126047,1
9884126047,9884126047,9965182047,9884126047,1
9904438046,9904438046,9965182047,9884126047,1
9924894043,9924894043,9965182047,9884126047,1
9945006043,9945006043,9965182047,9884126047,1
9965182047,9965182047,9965182047,9884126047,0
8640542043,8640542043,9985350043,9884126047,1
8661174047,8661174047,9985350043,9884126047,1
8681238047,8681238047,9985350043,9884126047,1
8701894047,8701894047,9985350043,9884126047,1
8722574043,8722574043,9985350043,9884126047,1
8743246046,8743246046,9985350043,9884126047,1
8763758043,8763758043,9985350043,9884126047,1
8784110043,8784110043,9985350043,9884126047,1
8804358043,8804358043,9985350043,9884126047,1
8824926043,8824926043,9985350043,9884126047,1
8845478043,8845478043,9985350043,9884126047,1
8866102043,8866102043,9985350043,9884126047,1
8886766044,8886766044,9985350043,9884126047,1
8906998043,8906998043,9985350043,9884126047,1
8927310043,8927310043,9985350043,9884126047,1
8947990047,8947990047,9985350043,9884126047,1
8968326044,8968326044,9985350043,9884126047,1
8988606044,8988606044,9985350043,9884126047,1
9008750047,9008750047,9985350043,9884126047,1
9028822047,9028822047,9985350043,9884126047,1
9049062043,9049062043,9985350043,9884126047,1
9069326047,9069326047,9985350043,9884126047,1
9089782046,9089782046,9985350043,9884126047,1
9110302043,9110302043,9985350043,9884126047,1
9130950047,9130950047,9985350043,9884126047,1
9151038043,9151038043,9985350043,9884126047,1
9171830043,9171830043,9985350043,9884126047,1
9192222045,9192222045,9985350043,9884126047,1
9212526043,9212526043,9985350043,9884126047,1
9232894043,9232894043,9985350043,9884126047,1
9252950047,9252950047,9985350043,9884126047,1
9273726043,9273726043,9985350043,9884126047,1
9293750043,9293750043,9985350043,9884126047,1
9313878044,9313878044,9985350043,9884126047,1
9334086043,9334086043,9985350043,9884126047,1
9354206047,9354206047,9985350043,9884126047,1
9374630047,9374630047,9985350043,9884126047,1
9394670043,9394670043,9985350043,9884126047,1
9414926044,9414926044,9985350043,9884126047,1
9434950045,9434950045,9985350043,9884126047,1
9455566043,9455566043,9985350043,9884126047,1
9476438043,9476438043,9985350043,9884126047,1
9497302043,9497302043,9985350043,9884126047,1
9517862045,9517862045,9985350043,9884126047,1
9538454043,9538454043,9985350043,9884126047,1
9559054043,9559054043,9985350043,9884126047,1
9579102043,9579102043,9985350043,9884126047,1
9599686046,9599686046,9985350043,9884126047,1
9619734047,9619734047,9985350043,9884126047,1
9640238047,9640238047,9985350043,9884126047,1
9660942043,9660942043,9985350043,9884126047,1
9681150043,9681150043,9985350043,9884126047,1
9701222046,9701222046,9985350043,9884126047,1
9721334044,9721334044,9985350043,9884126047,1
9741598043,9741598043,9985350043,9884126047,1
9761718043,9761718043,9985350043,9884126047,1
9782534047,9782534047,9985350043,9884126047,1
9802894046,9802894046,9985350043,9884126047,1
9823366043,9823366043,9985350043,9884126047,1
9843638043,9843638043,9985350043,9884126047,1
9863678047,9863678047,9985350043,9884126047,1
9884126047,9884126047,9985350043,9884126047,1
9904438046,9904438046,9985350043,9884126047,1
9924894043,9924894043,9985350043,9884126047,1
9945006043,9945006043,9985350043,9884126047,1
9965182047,9965182047,9985350043,9884126047,1
9985350043,9985350043,9985350043,9884126047,0
8640542043,8640542043,10005566043,9884126047,1
8661174047,8661174047,10005566043,9884126047,1
8681238047,8681238047,10005566043,9884126047,1
8701894047,8701894047,10005566043,9884126047,1
8722574043,8722574043,10005566043,9884126047,1
8743246046,8743246046,10005566043,9884126047,1
8763758043,8763758043,10005566043,9884126047,1
8784110043,8784110043,10005566043,9884126047,1
8804358043,8804358043,10005566043,9884126047,1
8824926043,8824926043,10005566043,9884126047,1
8845478043,8845478043,10005566043,9884126047,1
8866102043,8866102043,10005566043,9884126047,1
8886766044,8886766044,10005566043,9884126047,1
8906998043,8906998043,10005566043,9884126047,1
8927310043,8927310043,10005566043,9884126047,1
8947990047,8947990047,10005566043,9884126047,1
8968326044,8968326044,10005566043,9884126047,1
8988606044,8988606044,10005566043,9884126047,1
9008750047,9008750047,10005566043,9884126047,1
9028822047,9028822047,10005566043,9884126047,1
9049062043,9049062043,10005566043,9884126047,1
9069326047,9069326047,10005566043,9884126047,1
9089782046,9089782046,10005566043,9884126047,1
9110302043,9110302043,10005566043,9884126047,1
9130950047,9130950047,10005566043,9884126047,1
9151038043,9151038043,10005566043,9884126047,1
9171830043,9171830043,10005566043,9884126047,1
9192222045,9192222045,10005566043,9884126047,1
9212526043,9212526043,10005566043,9884126047,1
9232894043,9232894043,10005566043,9884126047,1
9252950047,9252950047,10005566043,9884126047,1
9273726043,9273726043,10005566043,9884126047,1
9293750043,9293750043,10005566043,9884126047,1
9313878044,9313878044,10005566043,9884126047,1
9334086043,9334086043,10005566043,9884126047,1
9354206047,9354206047,10005566043,9884126047,1
9374630047,9374630047,10005566043,9884126047,1
9394670043,9394670043,10005566043,9884126047,1
9414926044,9414926044,10005566043,9884126047,1
9434950045,9434950045,10005566043,9884126047,1
9455566043,9455566043,10005566043,9884126047,1
9476438043,9476438043,10005566043,9884126047,1
9497302043,9497302043,10005566043,9884126047,1
9517862045,9517862045,10005566043,9884126047,1
9538454043,9538454043,10005566043,9884126047,1
9559054043,9559054043,10005566043,9884126047,1
9579102043,9579102043,10005566043,9884126047,1
9599686046,9599686046,10005566043,9884126047,1
9619734047,9619734047,10005566043,9884126047,1
9640238047,9640238047,10005566043,9884126047,1
9660942043,9660942043,10005566043,9884126047,1
9681150043,9681150043,10005566043,9884126047,1
9701222046,9701222046,10005566043,9884126047,1
9721334044,9721334044,10005566043,9884126047,1
9741598043,9741598043,10005566043,9884126047,1
9761718043,9761718043,10005566043,9884126047,1
9782534047,9782534047,10005566043,9884126047,1
9802894046,9802894046,10005566043,9884126047,1
9823366043,9823366043,10005566043,9884126047,1
9843638043,9843638043,10005566043,9884126047,1
9863678047,9863678047,10005566043,9884126047,1
9884126047,9884126047,10005566043,9884126047,1
9904438046,9904438046,10005566043,9884126047,1
9924894043,9924894043,10005566043,9884126047,1
9945006043,9945006043,10005566043,9884126047,1
9965182047,9965182047,10005566043,9884126047,1
9985350043,9985350043,10005566043,9884126047,1
10005566043,10005566043,10005566043,9884126047,0
8640542043,8640542043,10025638043,9884126047,1
8661174047,8661174047,10025638043,9884126047,1
8681238047,8681238047,10025638043,9884126047,1
8701894047,8701894047,10025638043,9884126047,1
8722574043,8722574043,10025638043,9884126047,1
8743246046,8743246046,10025638043,9884126047,1
8763758043,8763758043,10025638043,9884126047,1
8784110043,8784110043,10025638043,9884126047,1
8804358043,8804358043,10025638043,9884126047,1
8824926043,8824926043,10025638043,9884126047,1
8845478043,8845478043,10025638043,9884126047,1
8866102043,8866102043,10025638043,9884126047,1
8886766044,8886766044,10025638043,9884126047,1
8906998043,8906998043,10025638043,9884126047,1
8927310043,8927310043,10025638043,9884126047,1
8947990047,8947990047,10025638043,9884126047,1
8968326044,8968326044,10025638043,9884126047,1
8988606044,8988606044,10025638043,9884126047,1
9008750047,9008750047,10025638043,9884126047,1
9028822047,9028822047,10025638043,9884126047,1
9049062043,9049062043,10025638043,9884126047,1
9069326047,9069326047,10025638043,9884126047,1
9089782046,9089782046,10025638043,9884126047,1
9110302043,9110302043,10025638043,9884126047,1
9130950047,9130950047,10025638043,9884126047,1
9151038043,9151038043,10025638043,9884126047,1
9171830043,9171830043,10025638043,9884126047,1
9192222045,9192222045,10025638043,9884126047,1
9212526043,9212526043,10025638043,9884126047,1
9232894043,9232894043,10025638043,9884126047,1
9252950047,9252950047,10025638043,9884126047,1
9273726043,9273726043,10025638043,9884126047,1
9293750043,9293750043,10025638043,9884126047,1
9313878044,9313878044,10025638043,9884126047,1
9334086043,9334086043,10025638043,9884126047,1
9354206047,9354206047,10025638043,9884126047,1
9374630047,9374630047,10025638043,9884126047,1
9394670043,9394670043,10025638043,9884126047,1
9414926044,9414926044,10025638043,9884126047,1
9434950045,9434950045,10025638043,9884126047,1
9455566043,9455566043,10025638043,9884126047,1
9476438043,9476438043,10025638043,9884126047,1
9497302043,9497302043,10025638043,9884126047,1
9517862045,9517862045,10025638043,9884126047,1
9538454043,9538454043,10025638043,9884126047,1
9559054043,9559054043,10025638043,9884126047,1
9579102043,9579102043,10025638043,9884126047,1
9599686046,9599686046,10025638043,9884126047,1
9619734047,9619734047,10025638043,9884126047,1
9640238047,9640238047,10025638043,9884126047,1
9660942043,9660942043,10025638043,9884126047,1
9681150043,9681150043,10025638043,9884126047,1
9701222046,9701222046,10025638043,9884126047,1
9721334044,9721334044,10025638043,9884126047,1
9741598043,9741598043,10025638043,9884126047,1
9761718043,9761718043,10025638043,9884126047,1
9782534047,9782534047,10025638043,9884126047,1
9802894046,9802894046,10025638043,9884126047,1
9823366043,9823366043,10025638043,9884126047,1
9843638043,9843638043,10025638043,9884126047,1
9863678047,9863678047,10025638043,9884126047,1
9884126047,9884126047,10025638043,9884126047,1
9904438046,9904438046,10025638043,9884126047,1
9924894043,9924894043,10025638043,9884126047,1
9945006043,9945006043,10025638043,9884126047,1
9965182047,9965182047,10025638043,9884126047,1
9985350043,9985350043,10025638043,9884126047,1
10005566043,10005566043,10025638043,9884126047,1
10025638043,10025638043,10025638043,9884126047,0
8640542043,8640542043,10045766047,9884126047,1
8661174047,8661174047,10045766047,9884126047,1
8681238047,8681238047,10045766047,9884126047,1
8701894047,8701894047,10045766047,9884126047,1
8722574043,8722574043,10045766047,9884126047,1
8743246046,8743246046,10045766047,9884126047,1
8763758043,8763758043,10045766047,9884126047,1
8784110043,8784110043,10045766047,9884126047,1
8804358043,8804358043,10045766047,9884126047,1
8824926043,8824926043,10045766047,9884126047,1
8845478043,8845478043,10045766047,9884126047,1
8866102043,8866102043,10045766047,9884126047,1
8886766044,8886766044,10045766047,9884126047,1
8906998043,8906998043,10045766047,9884126047,1
8927310043,8927310043,10045766047,9884126047,1
8947990047,8947990047,10045766047,9884126047,1
8968326044,8968326044,10045766047,9884126047,1
8988606044,8988606044,10045766047,9884126047,1
9008750047,9008750047,10045766047,9884126047,1
9028822047,9028822047,10045766047,9884126047,1
9049062043,9049062043,10045766047,9884126047,1
9069326047,9069326047,10045766047,9884126047,1
9089782046,9089782046,10045766047,9884126047,1
9110302043,9110302043,10045766047,9884126047,1
9130950047,9130950047,10045766047,9884126047,1
9151038043,9151038043,10045766047,9884126047,1
9171830043,9171830043,10045766047,9884126047,1
9192222045,9192222045,10045766047,9884126047,1
9212526043,9212526043,10045766047,9884126047,1
9232894043,9232894043,10045766047,9884126047,1
9252950047,9252950047,10045766047,9884126047,1
9273726043,9273726043,10045766047,9884126047,1
9293750043,9293750043,10045766047,9884126047,1
9313878044,9313878044,10045766047,9884126047,1
9334086043,9334086043,10045766047,9884126047,1
9354206047,9354206047,10045766047,9884126047,1
9374630047,9374630047,10045766047,9884126047,1
9394670043,9394670043,10045766047,9884126047,1
9414926044,9414926044,10045766047,9884126047,1
9434950045,9434950045,10045766047,9884126047,1
9455566043,9455566043,10045766047,9884126047,1
9476438043,9476438043,10045766047,9884126047,1
9497302043,9497302043,10045766047,9884126047,1
9517862045,9517862045,10045766047,9884126047,1
9538454043,9538454043,10045766047,9884126047,1
9559054043,9559054043,10045766047,9884126047,1
9579102043,9579102043,10045766047,9884126047,1
9599686046,9599686046,10045766047,9884126047,1
9619734047,9619734047,10045766047,9884126047,1
9640238047,9640238047,10045766047,9884126047,1
9660942043,9660942043,10045766047,9884126047,1
9681150043,9681150043,10045766047,9884126047,1
9701222046,9701222046,10045766047,9884126047,1
9721334044,9721334044,10045766047,9884126047,1
9741598043,9741598043,10045766047,9884126047,1
9761718043,9761718043,10045766047,9884126047,1
9782534047,9782534047,10045766047,9884126047,1
9802894046,9802894046,10045766047,9884126047,1
9823366043,9823366043,10045766047,9884126047,1
9843638043,9843638043,10045766047,9884126047,1
9863678047,9863678047,10045766047,9884126047,1
9884126047,9884126047,10045766047,9884126047,1
9904438046,9904438046,10045766047,9884126047,1
9924894043,9924894043,10045766047,9884126047,1
9945006043,9945006043,10045766047,9884126047,1
9965182047,9965182047,10045766047,9884126047,1
9985350043,9985350043,10045766047,9884126047,1
10005566043,10005566043,10045766047,9884126047,1
10025638043,10025638043,10045766047,9884126047,1
10045766047,10045766047,10045766047,9884126047,0
8640542043,8640542043,10065990047,10005566043,1
8661174047,8661174047,10065990047,10005566043,1
8681238047,8681238047,10065990047,10005566043,1
8701894047,8701894047,10065990047,10005566043,1
8722574043,8722574043,10065990047,10005566043,1
8743246046,8743246046,10065990047,10005566043,1
8763758043,8763758043,10065990047,10005566043,1
8784110043,8784110043,10065990047,10005566043,1
8804358043,8804358043,10065990047,10005566043,1
8824926043,8824926043,10065990047,10005566043,1
8845478043,8845478043,10065990047,10005566043,1
8866102043,8866102043,10065990047,10005566043,1
8886766044,8886766044,10065990047,10005566043,1
8906998043,8906998043,10065990047,10005566043,1
8927310043,8927310043,10065990047,10005566043,1
8947990047,8947990047,10065990047,10005566043,1
8968326044,8968326044,10065990047,10005566043,1
8988606044,8988606044,10065990047,10005566043,1
9008750047,9008750047,10065990047,10005566043,1
9028822047,9028822047,10065990047,10005566043,1
9049062043,9049062043,10065990047,10005566043,1
9069326047,9069326047,10065990047,10005566043,1
9089782046,9089782046,10065990047,10005566043,1
9110302043,9110302043,10065990047,10005566043,1
9130950047,9130950047,10065990047,10005566043,1
9151038043,9151038043,10065990047,10005566043,1
9171830043,9171830043,10065990047,10005566043,1
9192222045,9192222045,10065990047,10005566043,1
9212526043,9212526043,10065990047,10005566043,1
9232894043,9232894043,10065990047,10005566043,1
9252950047,9252950047,10065990047,10005566043,1
9273726043,9273726043,10065990047,10005566043,1
9293750043,9293750043,10065990047,10005566043,1
9313878044,9313878044,10065990047,10005566043,1
9334086043,9334086043,10065990047,10005566043,1
9354206047,9354206047,10065990047,10005566043,1
9374630047,9374630047,10065990047,10005566043,1
9394670043,9394670043,10065990047,10005566043,1
9414926044,9414926044,10065990047,10005566043,1
9434950045,9434950045,10065990047,10005566043,1
9455566043,9455566043,10065990047,10005566043,1
9476438043,9476438043,10065990047,10005566043,1
9497302043,9497302043,10065990047,10005566043,1
9517862045,9517862045,10065990047,10005566043,1
9538454043,9538454043,10065990047,10005566043,1
9559054043,9559054043,10065990047,10005566043,1
9579102043,9579102043,10065990047,10005566043,1
9599686046,9599686046,10065990047,10005566043,1
9619734047,9619734047,10065990047,10005566043,1
9640238047,9640238047,10065990047,10005566043,1
9660942043,9660942043,10065990047,10005566043,1
9681150043,9681150043,10065990047,10005566043,1
9701222046,9701222046,10065990047,10005566043,1
9721334044,9721334044,10065990047,10005566043,1
9741598043,9741598043,10065990047,10005566043,1
9761718043,9761718043,10065990047,10005566043,1
9782534047,9782534047,10065990047,10005566043,1
9802894046,9802894046,10065990047,10005566043,1
9823366043,9823366043,10065990047,10005566043,1
9843638043,9843638043,10065990047,10005566043,1
9863678047,9863678047,10065990047,10005566043,1
