t_us,window_start_t_us,window_end_t_us,beat_count,firmware_beat_count,insertion_ratio,recovery_ratio,dual_detector_ratio,single_detector_ratio,detector_consensus_mean,detector_time_spread_p95_ms,sequence_rescue_ratio,local_clip_ratio,firmware_unmatched_ratio,offset_p50_ms,offset_p95_ms,offset_signed_p50_ms,adjacent_offset_change_p95_ms,firmware_rr_rmssd_ms,firmware_rr_sdnn_ms,final_rr_rmssd_ms,final_rr_sdnn_ms,clipping_ratio
8640542043,8620686043,8640542043,26,26,0.000000,0.000000,1.000000,0.000000,1.000000,0.000000,0.000000,0.000000,0.307692,352.001000,361.200150,-352.001000,657.600400,212.306615,155.013148,37.487865,69.991171,0.000000
8661174047,8641454047,8661174047,24,25,0.000000,0.000000,1.000000,0.000000,1.000000,0.000000,0.000000,0.000000,0.166667,364.000000,376.001150,-364.000000,40.803600,273.077484,209.729558,57.054405,78.555983,0.000000
8681238047,8662174043,8681238047,24,25,0.000000,0.000000,1.000000,0.000000,1.000000,0.000000,0.000000,0.000000,0.375000,359.997000,375.997300,-352.003000,706.800650,325.809386,226.334147,34.409185,71.908445,0.000000
8701894047,8682006045,8701894047,24,27,0.000000,0.000000,1.000000,0.000000,1.000000,0.000000,0.000000,0.000000,0.291667,368.003000,376.000600,-368.003000,23.996250,410.595304,293.039271,36.580730,38.511337,0.000000
8722574043,8702694045,8722574043,25,26,0.000000,0.000000,1.000000,0.000000,1.000000,0.000000,0.000000,0.000000,0.520000,368.000000,375.999150,-368.000000,11.998500,314.382826,211.337585,27.458782,34.508156,0.000000
8743246046,8723422043,8743246046,24,24,0.000000,0.000000,1.000000,0.000000,1.000000,0.000000,0.000000,0.000000,0.250000,360.003500,376.000600,-360.003500,49.603000,237.556742,171.375803,46.271987,51.009368,0.000000
8763758043,8744126043,8763758043,25,25,0.000000,0.000000,1.000000,0.000000,1.000000,0.000000,0.000000,0.000000,0.480000,359.998000,371.201400,-359.998000,694.397800,217.527601,156.748082,28.797355,30.508935,0.000267
8784110043,8764606047,8784110043,25,27,0.000000,0.000000,1.000000,0.000000,1.000000,0.000000,0.000000,0.000000,0.160000,351.997000,376.000000,-351.997000,672.797950,376.410837,258.183420,37.597789,86.030549,0.000267
8804358043,8785014043,8804358043,24,25,0.000000,0.000000,1.000000,0.000000,1.000000,0.000000,0.000000,0.000000,0.166667,355.998500,376.000150,-355.998500,75.199700,324.669511,234.706235,54.525690,84.983167,0.000267
8824926043,8805254046,8824926043,24,25,0.000000,0.000000,1.000000,0.000000,1.000000,0.000000,0.000000,0.000000,0.291667,368.000000,376.003400,-368.000000,73.990750,332.164373,231.314950,35.450165,52.454601,0.000000
8845478043,8825742047,8845478043,26,25,0.000000,0.000000,1.000000,0.000000,1.000000,0.000000,0.000000,0.000000,0.500000,304.000000,367.998800,-272.000000,578.398900,323.402879,244.558852,46.101540,87.596548,0.056785
8866102043,8846350043,8866102043,24,24,0.000000,0.000000,1.000000,0.000000,1.000000,0.000000,0.000000,0.000000,0.000000,0.000000,8.001700,0.000000,8.002000,72.845490,72.197271,22.757201,25.597068,0.042133
8886766044,8866926043,8886766044,24,24,0.000000,0.000000,1.000000,0.000000,1.000000,0.000000,0.000000,0.000000,0.083333,0.000000,7.999900,0.000000,8.002000,371.253112,234.303178,37.755231,68.038575,0.000000
8906998043,8887542043,8906998043,29,26,0.000000,0.000000,1.000000,0.000000,1.000000,0.000000,0.000000,0.000000,0.103448,0.000000,5.999250,0.000000,7.999800,295.635256,221.727611,27.019115,71.776320,0.011464
8927310043,8907550044,8927310043,30,29,0.000000,0.000000,1.000000,0.000000,1.000000,0.000000,0.000000,0.000000,0.000000,0.000000,12.399150,0.000000,15.996000,35.108214,71.142865,30.426671,73.727552,0.000000
8947990047,8928014044,8947990047,29,28,0.000000,0.000000,1.000000,0.000000,1.000000,0.000000,0.000000,0.000000,0.068966,0.000000,8.000000,0.000000,8.000000,268.149411,167.535880,28.346617,51.204306,0.005333
8968326044,8948822043,8968326044,26,26,0.000000,0.000000,1.000000,0.000000,1.000000,0.000000,0.000000,0.000000,0.000000,0.000000,8.000000,0.000000,8.000000,22.149673,25.624552,24.054328,26.139708,0.005332
8988606044,8969126043,8988606044,25,25,0.000000,0.000000,1.000000,0.000000,1.000000,0.000000,0.000000,0.000000,0.000000,0.000000,8.002800,0.000000,8.001850,34.831930,35.463420,31.694762,34.428177,0.000000
9008750047,8989430043,9008750047,27,26,0.000000,0.000000,1.000000,0.000000,1.000000,0.000000,0.000000,0.000000,0.037037,0.000000,8.001500,0.000000,8.003200,193.982066,131.574599,28.261533,59.062575,0.000000
9028822047,9009454043,9028822047,24,25,0.000000,0.000000,1.000000,0.000000,1.000000,0.000000,0.000000,0.000000,0.000000,0.000000,8.002700,0.000000,8.002800,147.767458,133.246952,39.597411,81.983076,0.000000
9049062043,9029638043,9049062043,27,25,0.000000,0.000000,1.000000,0.000000,1.000000,0.000000,0.000000,0.000000,0.074074,0.000000,8.002600,0.000000,266.397900,246.870591,164.880954,34.353047,54.262358,0.061600
9069326047,9049798046,9069326047,27,26,0.000000,0.000000,1.000000,0.000000,1.000000,0.000000,0.000000,0.000000,0.185185,0.000000,8.001900,0.000000,8.002000,90.979566,67.957677,21.225510,32.501958,0.112237
9089782046,9070030044,9089782046,29,27,0.000000,0.000000,1.000000,0.000000,1.000000,0.000000,0.000000,0.000000,0.068966,0.000000,13.601900,0.000000,14.001750,183.658021,126.565540,24.049961,34.840889,0.073580
9110302043,9090510045,9110302043,27,27,0.000000,0.000000,1.000000,0.000000,1.000000,0.000000,0.000000,0.000000,0.000000,0.000000,8.002800,0.000000,8.004000,25.499402,66.882540,25.700204,66.729394,0.015463
9130950047,9111174047,9130950047,25,25,0.000000,0.000000,1.000000,0.000000,1.000000,0.000000,0.000000,0.000000,0.040000,0.000000,8.003400,0.000000,8.003600,211.882980,173.617491,53.224290,100.142851,0.079179
9151038043,9132038045,9151038043,24,24,0.000000,0.000000,1.000000,0.000000,1.000000,0.000000,0.000000,0.000000,0.000000,0.000000,8.002850,0.000000,22.400300,76.181391,114.614608,45.158541,70.001614,0.037958
9171830043,9151830043,9171830043,27,24,0.000000,0.000000,1.000000,0.000000,1.000000,0.000000,0.000000,0.000000,0.074074,0.000000,8.001000,0.000000,280.001000,229.890358,156.764223,32.000390,64.624619,0.024051
9192222045,9172702047,9192222045,25,24,0.000000,0.000000,1.000000,0.000000,1.000000,0.000000,0.000000,0.000000,0.080000,0.000000,29.596800,0.000000,328.399800,245.707551,181.129677,30.486217,64.634645,0.037057
9212526043,9193086045,9212526043,24,24,0.000000,0.000000,1.000000,0.000000,1.000000,0.000000,0.000000,0.000000,0.000000,0.000000,8.000000,0.000000,8.000900,28.130618,34.754975,27.818281,34.333857,0.000000
9232894043,9213382043,9232894043,25,24,0.000000,0.000000,1.000000,0.000000,1.000000,0.000000,0.000000,0.000000,0.040000,0.000000,8.000000,0.000000,288.801800,312.150276,177.686374,48.691383,78.625209,0.011197
9252950047,9233702043,9252950047,26,25,0.000000,0.000000,1.000000,0.000000,1.000000,0.000000,0.000000,0.000000,0.038462,0.000000,8.000000,0.000000,8.000000,216.340484,149.498436,27.373552,59.476864,0.000000
9273726043,9253806043,9273726043,27,26,0.000000,0.000000,1.000000,0.000000,1.000000,0.000000,0.000000,0.000000,0.037037,0.000000,8.002250,0.000000,8.003800,207.184382,135.705571,25.146521,44.645874,0.033324
9293750043,9274526043,9293750043,28,26,0.000000,0.000000,1.000000,0.000000,1.000000,0.000000,0.000000,0.000000,0.035714,0.000000,8.002800,0.000000,218.004000,105.905820,92.823058,22.078128,35.152853,0.001333
9313878044,9294438046,9313878044,30,30,0.000000,0.000000,1.000000,0.000000,1.000000,0.000000,0.000000,0.000000,0.033333,0.000000,8.000600,0.000000,8.001000,181.680698,103.391080,19.301251,20.770832,0.000000
9334086043,9314518043,9334086043,32,31,0.000000,0.000000,1.000000,0.000000,1.000000,0.000000,0.000000,0.000000,0.031250,0.000000,8.002000,0.000000,8.001000,152.912037,105.207533,13.386780,32.354995,0.004000
9354206047,9334686043,9354206047,29,29,0.000000,0.000000,1.000000,0.000000,1.000000,0.000000,0.000000,0.000000,0.000000,0.000000,8.000000,0.000000,13.198050,22.257310,45.657227,21.166137,45.187646,0.004000
9374630047,9354966043,9374630047,28,27,0.000000,0.000000,1.000000,0.000000,1.000000,0.000000,0.000000,0.000000,0.035714,0.000000,8.000700,0.000000,8.000750,179.878555,117.799191,34.050198,66.950419,0.097041
9394670043,9375358043,9394670043,25,25,0.000000,0.000000,1.000000,0.000000,1.000000,0.000000,0.000000,0.000000,0.040000,0.000000,266.399150,0.000000,15.203600,87.905914,74.537585,34.185866,46.523182,0.109571
9414926044,9395438047,9414926044,25,25,0.000000,0.000000,1.000000,0.000000,1.000000,0.000000,0.000000,0.000000,0.000000,0.000000,310.402200,0.000000,271.202700,127.946345,83.672669,49.258431,65.673811,0.106667
9434950045,9415814043,9434950045,24,24,0.000000,0.000000,1.000000,0.000000,1.000000,0.000000,0.000000,0.000000,0.041667,0.000000,8.004000,0.000000,8.004000,293.220179,172.830969,47.511874,69.950268,0.136000
9455566043,9435790043,9455566043,23,22,0.000000,0.000000,1.000000,0.000000,1.000000,0.000000,0.000000,0.000000,0.000000,0.000000,295.996400,0.000000,313.596500,167.713243,117.190958,56.215795,78.053689,0.068267
9476438043,9457294043,9476438043,23,23,0.000000,0.000000,1.000000,0.000000,1.000000,0.000000,0.000000,0.000000,0.000000,0.000000,8.001900,0.000000,8.002000,33.443730,39.727343,33.625002,39.650507,0.031200
9497302043,9477342043,9497302043,25,24,0.000000,0.000000,1.000000,0.000000,1.000000,0.000000,0.000000,0.000000,0.040000,0.000000,8.001000,0.000000,8.001000,224.290396,156.485821,33.110282,63.890130,0.069581
9517862045,9498182043,9517862045,25,23,0.000000,0.000000,1.000000,0.000000,1.000000,0.000000,0.000000,0.000000,0.040000,0.000000,6.797450,0.000000,7.997000,213.725237,139.636548,50.293635,69.542825,0.096241
9538454043,9518646045,9538454043,28,25,0.000000,0.000000,1.000000,0.000000,1.000000,0.000000,0.000000,0.000000,0.250000,0.000000,8.000000,0.000000,8.003000,380.758637,253.022780,27.845309,46.426192,0.068248
9559054043,9539182045,9559054043,25,25,0.000000,0.000000,1.000000,0.000000,1.000000,0.000000,0.000000,0.000000,0.120000,7.996500,350.803800,0.000000,352.004000,249.035046,166.926252,32.686985,71.046498,0.153026
9579102043,9559846044,9579102043,23,23,0.000000,0.000000,1.000000,0.000000,1.000000,0.000000,0.000000,0.000000,0.043478,0.000000,327.196200,0.000000,343.996000,169.490861,146.610767,38.684000,63.840689,0.112770
9599686046,9579926043,9599686046,24,23,0.000000,0.000000,1.000000,0.000000,1.000000,0.000000,0.000000,0.000000,0.000000,0.000000,7.999000,0.000000,8.002600,24.064279,31.826485,29.195405,34.765551,0.038400
9619734047,9600550043,9619734047,24,23,0.000000,0.000000,1.000000,0.000000,1.000000,0.000000,0.000000,0.000000,0.000000,3.998000,8.002000,3.998000,8.000900,37.155263,30.637531,40.325747,33.092137,0.075200
9640238047,9620518043,9640238047,23,24,0.000000,0.000000,1.000000,0.000000,1.000000,0.000000,0.000000,0.000000,0.000000,0.000000,8.000900,0.000000,8.003850,166.197024,131.975504,51.074713,77.108547,0.129600
9660942043,9641062043,9660942043,26,24,0.000000,0.000000,1.000000,0.000000,1.000000,0.000000,0.000000,0.000000,0.076923,0.000000,246.000450,0.000000,270.400000,275.374201,174.796980,45.956690,71.740342,0.179685
9681150043,9661742046,9681150043,24,24,0.000000,0.000000,1.000000,0.000000,1.000000,0.000000,0.000000,0.000000,0.208333,0.000000,336.004000,0.000000,336.004000,400.285599,237.340630,43.785369,67.360652,0.177333
9701222046,9682046043,9701222046,22,22,0.000000,0.000000,1.000000,0.000000,1.000000,0.000000,0.000000,0.000000,0.090909,0.000000,23.601900,0.000000,39.201800,224.319845,146.589857,38.115635,71.879111,0.179419
9721334044,9701998043,9721334044,22,22,0.000000,0.000000,1.000000,0.000000,1.000000,0.000000,0.000000,0.000000,0.181818,0.000000,8.002000,0.000000,8.002000,204.265498,144.959126,38.781790,43.664649,0.109038
9741598043,9722214046,9741598043,23,23,0.000000,0.000000,1.000000,0.000000,1.000000,0.000000,0.000000,0.000000,0.000000,0.000000,375.200900,0.000000,357.603000,157.205082,110.363969,57.716166,60.085026,0.163956
9761718043,9742446043,9761718043,24,24,0.000000,0.000000,1.000000,0.000000,1.000000,0.000000,0.000000,0.000000,0.041667,0.000000,319.198300,0.000000,307.598100,197.931042,120.518391,33.552889,37.462341,0.206400
9782534047,9762582043,9782534047,25,22,0.000000,0.000000,1.000000,0.000000,1.000000,0.000000,0.000000,0.000000,0.160000,0.000000,8.002000,0.000000,8.003000,720.160091,476.204439,44.914961,87.474191,0.199680
9802894046,9783430046,9802894046,24,18,0.000000,0.000000,1.000000,0.000000,1.000000,0.000000,0.000000,0.000000,0.250000,0.000000,326.001250,0.000000,300.800400,1437.535811,946.879802,55.109663,107.573955,0.178133
9823366043,9803742047,9823366043,22,22,0.000000,0.000000,1.000000,0.000000,1.000000,0.000000,0.000000,0.000000,0.136364,0.000000,338.399900,0.000000,359.999000,323.351784,191.898117,42.557791,36.714897,0.189067
9843638043,9824238043,9843638043,24,23,0.000000,0.000000,1.000000,0.000000,1.000000,0.000000,0.000000,0.000000,0.041667,0.000000,336.001900,0.000000,327.998000,189.925469,128.521416,66.057727,73.710094,0.171733
9863678047,9844478043,9863678047,21,22,0.000000,0.000000,1.000000,0.000000,1.000000,0.000000,0.000000,0.000000,0.000000,0.000000,8.000000,0.000000,8.004000,221.566826,149.005919,69.525108,92.788411,0.123700
9884126047,9864558046,9884126047,24,24,0.000000,0.000000,1.000000,0.000000,1.000000,0.000000,0.000000,0.000000,0.041667,0.000000,350.397300,0.000000,312.797250,171.257331,105.571099,40.000082,62.835359,0.150360
9904438046,9885046044,9904438046,23,22,0.000000,0.000000,1.000000,0.000000,1.000000,0.000000,0.000000,0.000000,0.000000,0.000000,8.001900,0.000000,8.002000,36.706774,43.346471,33.354386,47.786386,0.125033
9924894043,9905310047,9924894043,25,23,0.000000,0.000000,1.000000,0.000000,1.000000,0.000000,0.000000,0.000000,0.040000,0.000000,259.600850,0.000000,274.401100,151.519114,95.380819,49.987679,62.504188,0.158358
9945006043,9925750046,9945006043,27,23,0.000000,0.000000,1.000000,0.000000,1.000000,0.000000,0.000000,0.000000,0.222222,0.000000,216.000000,0.000000,218.000000,838.285736,504.194544,38.996386,86.138052,0.116769
9965182047,9945566047,9965182047,35,30,0.000000,0.000000,1.000000,0.000000,1.000000,0.000000,0.000000,0.028571,0.171429,0.000000,8.004000,0.000000,127.600100,299.801273,184.342824,21.887127,52.543443,0.019195
9985350043,9965854045,9985350043,30,28,0.000000,0.000000,1.000000,0.000000,1.000000,0.000000,0.000000,0.000000,0.066667,0.000000,169.202950,0.000000,186.401600,121.153797,77.319576,31.496059,46.817745,0.112770
10005566043,9986462043,10005566043,24,20,0.000000,0.000000,1.000000,0.000000,1.000000,0.000000,0.000000,0.000000,0.166667,0.000000,8.001100,0.000000,8.003000,50.314513,56.947657,50.595825,61.480063,0.155692
10025638043,10006334045,10025638043,26,26,0.000000,0.000000,1.000000,0.000000,1.000000,0.000000,0.000000,0.000000,0.076923,0.000000,7.999850,0.000000,7.999000,292.446156,153.520242,28.797604,31.926228,0.024533
10045766047,10026422043,10045766047,27,26,0.000000,0.000000,1.000000,0.000000,1.000000,0.000000,0.000000,0.000000,0.037037,0.000000,8.001500,0.000000,264.000400,102.385338,92.333804,35.381098,66.124610,0.066400
10065990047,10046446045,10065990047,27,26,0.000000,0.000000,1.000000,0.000000,1.000000,0.000000,0.000000,0.000000,0.037037,0.000000,190.000500,0.000000,209.600200,119.140449,75.178219,23.569499,53.041105,0.043025
10086174043,10066790043,10086174043,25,25,0.000000,0.000000,1.000000,0.000000,1.000000,0.000000,0.000000,0.000000,0.000000,0.000000,8.003600,0.000000,8.003400,25.187230,30.891714,24.740532,30.801314,0.025333
10106326045,10086982043,10106326045,26,26,0.000000,0.000000,1.000000,0.000000,1.000000,0.000000,0.000000,0.000000,0.000000,0.000000,8.000000,0.000000,8.003200,22.149583,33.123087,24.926024,33.348039,0.031467
10126502044,10107038043,10126502044,28,27,0.000000,0.000000,1.000000,0.000000,1.000000,0.000000,0.000000,0.000000,0.035714,0.000000,8.002000,0.000000,8.002000,27.153490,39.163314,27.846237,46.612983,0.066649
10146886043,10127094047,10146886043,28,24,0.000000,0.000000,1.000000,0.000000,1.000000,0.000000,0.000000,0.000000,0.142857,0.000000,7.996850,0.000000,7.999700,733.103643,499.680416,30.056921,58.877958,0.093308
10167358043,10147694046,10167358043,26,26,0.000000,0.000000,1.000000,0.000000,1.000000,0.000000,0.000000,0.000000,0.269231,0.000000,7.996600,0.000000,7.996900,213.641645,140.344630,31.580712,52.648026,0.162623
10187622043,10168078043,10187622043,29,27,0.000000,0.000000,1.000000,0.000000,1.000000,0.000000,0.000000,0.000000,0.137931,0.000000,8.001600,0.000000,246.000300,162.365539,113.531464,26.843657,48.862619,0.201067
10207686043,10188246047,10207686043,29,28,0.000000,0.000000,1.000000,0.000000,1.000000,0.000000,0.000000,0.000000,0.034483,0.000000,8.002650,0.000000,8.003700,26.855992,54.486500,27.195501,55.951690,0.208211
10227950047,10208502043,10227950047,26,26,0.000000,0.000000,1.000000,0.000000,1.000000,0.000000,0.000000,0.000000,0.076923,0.000000,8.001000,0.000000,8.001000,262.348715,165.799678,34.602245,72.121185,0.194400
10248494043,10228774043,10248494043,26,26,0.000000,0.000000,1.000000,0.000000,1.000000,0.000000,0.000000,0.000000,0.000000,0.000000,8.000000,0.000000,8.001600,25.298393,28.378313,24.818851,27.808608,0.217067
10269238043,10249342043,10269238043,26,25,0.000000,0.000000,1.000000,0.000000,1.000000,0.000000,0.000000,0.000000,0.038462,0.000000,276.800800,0.000000,301.601700,157.661990,92.089318,22.567248,45.905221,0.223940
10289814044,10270054043,10289814044,27,21,0.000000,0.000000,1.000000,0.000000,1.000000,0.000000,0.000000,0.000000,0.185185,0.000000,7.996950,0.000000,7.999000,1038.269145,704.537103,42.058976,59.951906,0.222667
10310542044,10291214043,10310542044,27,25,0.000000,0.000000,1.000000,0.000000,1.000000,0.000000,0.000000,0.000000,0.074074,0.000000,8.000000,0.000000,8.002550,309.759389,308.477347,24.836915,40.408480,0.227139
10330638047,10311286043,10330638047,27,19,0.000000,0.000000,1.000000,0.000000,1.000000,0.000000,0.000000,0.000000,0.259259,0.000000,8.001100,0.000000,8.003000,1828.968288,1257.439021,22.684155,26.239988,0.351106
10351198047,10331374043,10351198047,27,25,0.000000,0.000000,1.000000,0.000000,1.000000,0.000000,0.000000,0.000000,0.222222,0.000000,8.001000,0.000000,8.003000,643.799479,439.454289,25.650064,64.508964,0.312983
10371414043,10351982043,10371414043,23,9,0.000000,0.000000,1.000000,0.000000,1.000000,0.000000,0.000000,0.000000,0.608696,0.000000,4.800000,0.000000,8.000000,7047.422018,4653.924960,57.714872,134.471046,0.325247
10392070043,10372294044,10392070043,24,21,0.000000,0.000000,1.000000,0.000000,1.000000,0.000000,0.000000,0.000000,0.125000,0.000000,8.004000,0.000000,328.000000,400.149532,351.667703,31.497983,72.196877,0.293788
10412478043,10392934043,10412478043,30,17,0.000000,0.000000,1.000000,0.000000,1.000000,0.000000,0.000000,0.233333,0.433333,0.000000,8.000000,0.000000,8.000000,1286.241651,1102.595413,27.629033,64.804010,0.402026
10433126043,10413174043,10433126043,28,24,0.000000,0.000000,1.000000,0.000000,1.000000,0.000000,0.000000,0.000000,0.214286,0.000000,220.800200,0.000000,296.000000,940.257410,684.026068,32.760314,47.801894,0.325600
10453206043,10433902044,10453206043,26,18,0.000000,0.000000,1.000000,0.000000,1.000000,0.000000,0.000000,0.038462,0.307692,0.000000,290.398750,0.000000,291.199000,1627.842408,1556.600121,51.510355,92.061452,0.311384
10473422043,10454070043,10473422043,24,24,0.000000,0.000000,1.000000,0.000000,1.000000,0.000000,0.000000,0.000000,0.000000,0.000000,7.996850,0.000000,7.999700,27.974521,36.712855,28.844322,37.106632,0.281333
10493534043,10474270043,10493534043,23,16,0.000000,0.000000,1.000000,0.000000,1.000000,0.000000,0.000000,0.000000,0.304348,8.000500,308.001500,0.000000,310.399300,1742.695368,1146.246781,78.188763,97.440902,0.288267
10513686043,10494390043,10513686043,26,25,0.000000,0.000000,1.000000,0.000000,1.000000,0.000000,0.000000,0.000000,0.038462,0.000000,8.001600,0.000000,8.002850,199.016802,128.390605,25.298209,50.970599,0.257600
10533822043,10514446043,10533822043,24,19,0.000000,0.000000,1.000000,0.000000,1.000000,0.000000,0.000000,0.000000,0.208333,0.000000,8.003000,0.000000,8.003000,828.549673,764.433965,33.769088,56.744712,0.290667
10554278046,10534590043,10554278046,24,24,0.000000,0.000000,1.000000,0.000000,1.000000,0.000000,0.000000,0.000000,0.000000,0.000000,8.001700,0.000000,8.002000,27.712971,38.138599,24.480167,37.445650,0.298054
10574670043,10555062043,10574670043,28,19,0.000000,0.000000,1.000000,0.000000,1.000000,0.000000,0.000000,0.000000,0.321429,0.000000,35.203500,0.000000,279.999000,1360.303789,982.397951,48.332050,78.173896,0.344441
10594742043,10575518043,10594742043,25,17,0.000000,0.000000,1.000000,0.000000,1.000000,0.000000,0.000000,0.000000,0.320000,0.000000,59.202400,0.000000,266.000000,1123.814545,800.905439,35.856167,55.089442,0.354400
10614966043,10595454046,10614966043,29,25,0.000000,0.000000,1.000000,0.000000,1.000000,0.000000,0.000000,0.241379,0.172414,0.000000,254.799850,0.000000,15.200300,589.368323,442.241805,18.086148,48.458823,0.225806
10635454043,10615798043,10635454043,28,18,0.000000,0.000000,1.000000,0.000000,1.000000,0.000000,0.000000,0.285714,0.321429,0.000000,275.997300,0.000000,277.997450,177.598421,98.257103,28.972836,67.079902,0.328800
10655830045,10636270043,10655830045,28,24,0.000000,0.000000,1.000000,0.000000,1.000000,0.000000,0.000000,0.214286,0.250000,0.000000,287.997000,0.000000,326.403850,151.435795,102.988946,28.284032,41.232299,0.367467
10676102043,10656566043,10676102043,28,27,0.000000,0.000000,1.000000,0.000000,1.000000,0.000000,0.000000,0.071429,0.035714,0.000000,8.000000,0.000000,7.999750,24.051918,33.661120,21.964097,36.073981,0.329512
10696678043,10676758043,10696678043,28,27,0.000000,0.000000,1.000000,0.000000,1.000000,0.000000,0.000000,0.142857,0.000000,0.000000,8.003950,0.000000,8.004100,20.111689,22.714180,21.738531,29.546445,0.245268
10716694043,10697446043,10716694043,27,27,0.000000,0.000000,1.000000,0.000000,1.000000,0.000000,0.000000,0.000000,0.000000,0.000000,8.002700,0.000000,8.003000,21.762441,25.422373,23.460401,26.019527,0.218667
10737222043,10717470046,10737222043,28,27,0.000000,0.000000,1.000000,0.000000,1.000000,0.000000,0.000000,0.000000,0.035714,0.000000,7.998100,0.000000,7.998250,117.793781,99.983570,23.112155,46.506813,0.281792
10757838046,10738454043,10757838046,27,15,0.000000,0.000000,1.000000,0.000000,1.000000,0.000000,0.000000,0.222222,0.444444,0.000000,7.998600,0.000000,8.000000,1813.462993,1090.654687,34.944335,65.970574,0.364969
10778086047,10758686047,10778086047,25,23,0.000000,0.000000,1.000000,0.000000,1.000000,0.000000,0.000000,0.000000,0.080000,0.000000,8.000000,0.000000,8.000000,24.995756,28.397037,25.841295,28.158858,0.336177
10798430044,10778886045,10798430044,29,22,0.000000,0.000000,1.000000,0.000000,1.000000,0.000000,0.000000,0.344828,0.241379,0.000000,258.800100,0.000000,272.003000,1254.785187,877.670046,23.196309,53.671143,0.438816
