seq,t_us,raw,avg,filtered,peak,detector_score,expected_rr_ms,hr_bpm,flags
1077242,8618478045,180.0,209.0,59.0,0,0.649,728.0,0.0,17
1077243,8618486043,171.0,200.0,49.0,0,0.635,728.0,0.0,17
1077244,8618494043,163.0,191.0,39.0,0,0.606,728.0,0.0,17
1077245,8618502043,159.0,183.0,30.0,0,0.565,728.0,0.0,17
1077246,8618510043,156.0,177.0,22.0,0,0.527,728.0,0.0,17
1077247,8618518043,154.0,171.0,14.0,0,0.505,728.0,0.0,17
1077248,8618526043,148.0,166.0,7.0,0,0.469,728.0,0.0,17
1077249,8618534046,150.0,162.0,1.0,0,0.437,728.0,0.0,17
1077250,8618542043,144.0,157.0,-4.0,0,0.43,728.0,0.0,17
1077251,8618550047,140.0,153.0,-9.0,0,0.443,728.0,0.0,17
1077252,8618558047,141.0,150.0,-14.0,0,0.458,728.0,0.0,17
1077253,8618566043,135.0,147.0,-18.0,0,0.448,728.0,0.0,17
1077254,8618574043,132.0,143.0,-22.0,0,0.46,728.0,0.0,17
1077255,8618582044,132.0,140.0,-25.0,0,0.447,728.0,0.0,17
1077256,8618590043,131.0,138.0,-28.0,0,0.456,728.0,0.0,17
1077257,8618598043,126.0,135.0,-31.0,0,0.465,728.0,0.0,17
1077258,8618606043,125.0,133.0,-34.0,0,0.474,728.0,0.0,17
1077259,8618614043,124.0,131.0,-37.0,0,0.483,728.0,0.0,17
1077260,8618622043,123.0,129.0,-39.0,0,0.467,728.0,0.0,17
1077261,8618630043,122.0,127.0,-41.0,0,0.473,728.0,0.0,17
1077262,8618638043,116.0,124.0,-43.0,0,0.479,728.0,0.0,17
1077263,8618646043,117.0,123.0,-45.0,0,0.485,728.0,0.0,17
1077264,8618654043,118.0,122.0,-46.0,0,0.467,728.0,0.0,17
1077265,8618662043,111.0,119.0,-48.0,0,0.494,728.0,0.0,17
1077266,8618670044,109.0,117.0,-50.0,0,0.5,728.0,0.0,17
1077267,8618678043,105.0,114.0,-52.0,0,0.506,728.0,0.0,17
1077268,8618686043,107.0,112.0,-54.0,0,0.512,728.0,0.0,17
1077269,8618694043,104.0,110.0,-55.0,0,0.494,728.0,0.0,17
1077270,8618702043,97.0,107.0,-58.0,0,0.546,728.0,0.0,17
1077271,8618710043,100.0,105.0,-59.0,0,0.506,728.0,0.0,17
1077272,8618718043,95.0,103.0,-61.0,0,0.533,728.0,0.0,17
1077273,8618726043,98.0,102.0,-63.0,0,0.539,728.0,0.0,17
1077274,8618734043,96.0,100.0,-64.0,0,0.52,728.0,0.0,17
1077275,8618742043,96.0,99.0,-65.0,0,0.523,728.0,0.0,17
1077276,8618750044,96.0,98.0,-66.0,0,0.526,728.0,0.0,17
1077277,8618758043,95.0,98.0,-67.0,0,0.529,728.0,0.0,17
1077278,8618766044,96.0,97.0,-67.0,1,0.508,728.0,0.0,17
1077279,8618774043,100.0,98.0,-67.0,0,0.508,728.0,0.0,17
1077280,8618782043,99.0,98.0,-67.0,0,0.508,728.0,0.0,17
1077281,8618790047,100.0,99.0,-67.0,0,0.508,728.0,0.0,17
1077282,8618798043,104.0,100.0,-66.0,0,0.526,728.0,0.0,17
1077283,8618806043,101.0,100.0,-65.0,0,0.523,728.0,0.0,17
1077284,8618814043,105.0,101.0,-64.0,0,0.52,728.0,0.0,17
1077285,8618822043,108.0,103.0,-63.0,0,0.517,728.0,0.0,17
1077286,8618830043,109.0,104.0,-62.0,0,0.514,728.0,0.0,17
1077287,8618838043,113.0,107.0,-60.0,0,0.53,728.0,0.0,17
1077288,8618846043,108.0,107.0,-59.0,0,0.506,728.0,0.0,17
1077289,8618854043,116.0,109.0,-57.0,0,0.521,728.0,0.0,17
1077290,8618862043,114.0,110.0,-55.0,0,0.516,728.0,0.0,17
1077291,8618870043,123.0,113.0,-53.0,0,0.51,728.0,0.0,17
1077292,8618878043,118.0,114.0,-51.0,0,0.504,728.0,0.0,17
1077293,8618886043,121.0,116.0,-49.0,0,0.498,728.0,0.0,17
1077294,8618894043,124.0,118.0,-47.0,0,0.492,728.0,0.0,17
1077295,8618902043,123.0,119.0,-45.0,0,0.486,728.0,0.0,17
1077296,8618910047,126.0,121.0,-43.0,0,0.48,728.0,0.0,17
1077297,8618918045,127.0,122.0,-41.0,0,0.474,728.0,0.0,17
1077298,8618926043,130.0,124.0,-40.0,0,0.45,728.0,0.0,17
1077299,8618934043,124.0,124.0,-38.0,0,0.465,728.0,0.0,17
1077300,8618942046,127.0,125.0,-37.0,0,0.441,728.0,0.0,17
1077301,8618950043,130.0,126.0,-35.0,0,0.456,728.0,0.0,17
1077302,8618958043,131.0,127.0,-34.0,0,0.432,728.0,0.0,17
1077303,8618966043,132.0,128.0,-33.0,0,0.429,728.0,0.0,17
1077304,8618974043,132.0,129.0,-32.0,0,0.426,728.0,0.0,17
1077305,8618982043,132.0,130.0,-30.0,0,0.441,728.0,0.0,17
1077306,8618990043,132.0,130.0,-29.0,0,0.417,728.0,0.0,17
1077307,8618998043,136.0,132.0,-28.0,0,0.414,728.0,0.0,17
1077308,8619006043,142.0,134.0,-27.0,0,0.411,728.0,0.0,17
1077309,8619014046,145.0,137.0,-25.0,0,0.426,728.0,0.0,17
1077310,8619022043,150.0,140.0,-22.0,0,0.439,728.0,0.0,17
1077311,8619030043,160.0,145.0,-19.0,0,0.43,728.0,0.0,17
1077312,8619038043,168.0,150.0,-16.0,0,0.422,728.0,0.0,17
1077313,8619046043,176.0,157.0,-11.0,0,0.451,728.0,0.0,17
1077314,8619054043,192.0,165.0,-6.0,0,0.437,728.0,0.0,17
1077315,8619062045,205.0,175.0,1.0,0,0.461,728.0,0.0,17
1077316,8619070043,222.0,186.0,9.0,0,0.5,728.0,0.0,17
1077317,8619078043,239.0,199.0,19.0,0,0.558,728.0,0.0,17
1077318,8619086043,251.0,212.0,29.0,0,0.587,728.0,0.0,17
1077319,8619094045,268.0,225.0,40.0,0,0.633,728.0,0.0,17
1077320,8619102043,279.0,238.0,51.0,0,0.665,728.0,0.0,17
1077321,8619110045,288.0,250.0,63.0,0,0.711,728.0,0.0,17
1077322,8619118045,296.0,261.0,74.0,0,0.73,728.0,0.0,17
1077323,8619126045,306.0,272.0,85.0,0,0.758,728.0,0.0,17
1077324,8619134045,314.0,282.0,95.0,0,0.768,728.0,0.0,17
1077325,8619142046,316.0,291.0,104.0,0,0.772,728.0,0.0,17
1077326,8619150044,320.0,298.0,113.0,0,0.789,728.0,0.0,17
1077327,8619158043,316.0,302.0,120.0,0,0.766,728.0,0.0,17
1077328,8619166043,317.0,306.0,126.0,0,0.756,728.0,0.0,17
1077329,8619174044,313.0,307.0,130.0,0,0.721,728.0,0.0,17
1077330,8619182045,308.0,308.0,133.0,0,0.703,728.0,0.0,17
1077331,8619190043,302.0,306.0,135.0,0,0.684,728.0,0.0,17
1077332,8619198047,298.0,304.0,135.0,1,0.643,728.0,0.0,17
1077333,8619206043,288.0,300.0,134.0,0,0.66,728.0,0.0,17
1077334,8619214043,276.0,294.0,131.0,0,0.697,728.0,0.0,17
1077335,8619222043,268.0,288.0,127.0,0,0.713,728.0,0.0,17
1077336,8619230043,255.0,280.0,122.0,0,0.726,728.0,0.0,17
1077337,8619238043,244.0,271.0,115.0,0,0.753,728.0,0.0,17
1077338,8619246043,231.0,262.0,107.0,0,0.755,728.0,0.0,17
1077339,8619254043,224.0,252.0,99.0,0,0.738,728.0,0.0,17
1077340,8619262043,213.0,243.0,90.0,0,0.733,728.0,0.0,17
1077341,8619270043,204.0,233.0,81.0,0,0.711,728.0,0.0,17
1077342,8619278043,196.0,224.0,72.0,0,0.687,728.0,0.0,17
1077343,8619286043,189.0,216.0,63.0,0,0.662,728.0,0.0,17
1077344,8619294043,180.0,207.0,54.0,0,0.637,728.0,0.0,17
1077345,8619302043,179.0,200.0,46.0,0,0.598,728.0,0.0,17
1077346,8619310043,172.0,193.0,38.0,0,0.574,728.0,0.0,17
1077347,8619318043,171.0,188.0,30.0,0,0.551,728.0,0.0,17
1077348,8619326043,162.0,182.0,23.0,0,0.514,728.0,0.0,17
1077349,8619334043,164.0,177.0,17.0,0,0.478,728.0,0.0,17
1077350,8619342043,157.0,172.0,11.0,0,0.462,728.0,0.0,17
1077351,8619350043,157.0,169.0,6.0,0,0.429,728.0,0.0,17
1077352,8619358044,153.0,165.0,1.0,0,0.419,728.0,0.0,17
1077353,8619366043,155.0,163.0,-3.0,0,0.408,728.0,0.0,17
1077354,8619374043,156.0,161.0,-6.0,0,0.394,728.0,0.0,17
1077355,8619382043,150.0,158.0,-9.0,0,0.402,728.0,0.0,17
1077356,8619390047,150.0,156.0,-12.0,0,0.411,728.0,0.0,17
1077357,8619398043,145.0,154.0,-15.0,0,0.42,728.0,0.0,17
1077358,8619406043,138.0,150.0,-18.0,0,0.429,728.0,0.0,17
1077359,8619414043,140.0,147.0,-20.0,0,0.412,728.0,0.0,17
1077360,8619422043,136.0,145.0,-23.0,0,0.444,728.0,0.0,17
1077361,8619430043,135.0,142.0,-26.0,0,0.453,728.0,0.0,17
1077362,8619438045,129.0,139.0,-28.0,0,0.437,728.0,0.0,17
1077363,8619446043,125.0,136.0,-31.0,0,0.469,728.0,0.0,17
1077364,8619454043,122.0,132.0,-34.0,0,0.478,728.0,0.0,17
1077365,8619462043,121.0,130.0,-37.0,0,0.487,728.0,0.0,17
1077366,8619470043,121.0,128.0,-39.0,0,0.471,728.0,0.0,17
1077367,8619478043,118.0,125.0,-42.0,0,0.503,728.0,0.0,17
1077368,8619486043,119.0,124.0,-44.0,0,0.486,728.0,0.0,17
1077369,8619494043,116.0,122.0,-45.0,0,0.467,728.0,0.0,17
1077370,8619502043,115.0,120.0,-47.0,0,0.496,728.0,0.0,17
1077371,8619510043,111.0,118.0,-49.0,0,0.502,728.0,0.0,17
1077372,8619518043,111.0,116.0,-51.0,0,0.508,728.0,0.0,17
1077373,8619526043,105.0,114.0,-52.0,0,0.489,728.0,0.0,17
1077374,8619534043,105.0,111.0,-54.0,0,0.517,728.0,0.0,17
1077375,8619542043,104.0,110.0,-56.0,0,0.523,728.0,0.0,17
1077376,8619550043,103.0,108.0,-57.0,0,0.504,728.0,0.0,17
1077377,8619558043,106.0,108.0,-59.0,0,0.532,728.0,0.0,17
1077378,8619566043,108.0,108.0,-59.0,1,0.489,728.0,0.0,17
1077379,8619574043,108.0,108.0,-60.0,0,0.513,728.0,0.0,17
1077380,8619582043,106.0,107.0,-60.0,1,0.492,728.0,0.0,17
1077381,8619590045,108.0,107.0,-60.0,0,0.492,728.0,0.0,17
1077382,8619598043,108.0,108.0,-60.0,0,0.492,728.0,0.0,17
1077383,8619606043,112.0,109.0,-59.0,0,0.51,728.0,0.0,17
1077384,8619614043,111.0,109.0,-59.0,1,0.489,728.0,0.0,17
1077385,8619622043,113.0,110.0,-58.0,0,0.507,728.0,0.0,17
1077386,8619630043,116.0,112.0,-57.0,0,0.504,728.0,0.0,17
1077387,8619638043,116.0,113.0,-55.0,0,0.52,728.0,0.0,17
1077388,8619646043,121.0,115.0,-54.0,0,0.495,728.0,0.0,17
1077389,8619654043,121.0,116.0,-52.0,0,0.511,728.0,0.0,17
1077390,8619662043,124.0,118.0,-51.0,0,0.486,728.0,0.0,17
1077391,8619670043,131.0,121.0,-48.0,0,0.522,728.0,0.0,17
1077392,8619678047,127.0,123.0,-46.0,0,0.493,728.0,0.0,17
1077393,8619686043,133.0,125.0,-44.0,0,0.487,728.0,0.0,17
1077394,8619694043,132.0,127.0,-42.0,0,0.481,728.0,0.0,17
1077395,8619702043,133.0,128.0,-40.0,0,0.475,728.0,0.0,17
1077396,8619710043,135.0,130.0,-38.0,0,0.469,728.0,0.0,17
1077397,8619718043,134.0,131.0,-36.0,0,0.463,728.0,0.0,17
1077398,8619726049,134.0,132.0,-34.0,0,0.457,728.0,0.0,17
1077399,8619734043,134.0,132.0,-33.0,0,0.432,728.0,0.0,17
1077400,8619742046,136.0,133.0,-32.0,0,0.429,728.0,0.0,17
1077401,8619750043,140.0,135.0,-30.0,0,0.446,728.0,0.0,17
1077402,8619758043,144.0,137.0,-29.0,0,0.421,728.0,0.0,17
1077403,8619766043,145.0,139.0,-27.0,0,0.437,728.0,0.0,17
1077404,8619774045,151.0,142.0,-25.0,0,0.431,728.0,0.0,17
1077405,8619782043,157.0,146.0,-22.0,0,0.445,728.0,0.0,17
1077406,8619790043,171.0,152.0,-18.0,0,0.455,728.0,0.0,17
1077407,8619798047,179.0,158.0,-14.0,0,0.444,728.0,0.0,17
1077408,8619806043,194.0,167.0,-8.0,0,0.47,728.0,0.0,17
1077409,8619814044,210.0,177.0,-1.0,0,0.47,728.0,0.0,17
1077410,8619822046,220.0,188.0,7.0,0,0.497,728.0,0.0,17
1077411,8619830043,237.0,200.0,16.0,0,0.538,728.0,0.0,17
1077412,8619838043,249.0,212.0,25.0,0,0.565,728.0,0.0,17
1077413,8619846043,265.0,225.0,36.0,0,0.625,728.0,0.0,17
1077414,8619854043,276.0,237.0,47.0,0,0.659,728.0,0.0,17
1077415,8619862043,288.0,249.0,58.0,0,0.692,728.0,0.0,17
1077416,8619870043,299.0,261.0,69.0,0,0.723,728.0,0.0,17
1077417,8619878043,308.0,273.0,80.0,0,0.753,728.0,0.0,17
1077418,8619886046,311.0,282.0,91.0,0,0.78,728.0,0.0,17
1077419,8619894043,312.0,289.0,100.0,0,0.772,728.0,0.0,17
1077420,8619902043,315.0,296.0,108.0,0,0.771,728.0,0.0,17
1077421,8619910043,314.0,300.0,115.0,0,0.765,728.0,0.0,17
1077422,8619918043,310.0,302.0,120.0,0,0.733,728.0,0.0,17
1077423,8619926043,307.0,304.0,124.0,0,0.717,728.0,0.0,17
1077424,8619934043,299.0,302.0,126.0,0,0.676,728.0,0.0,17
1077425,8619942045,292.0,300.0,127.0,0,0.655,728.0,0.0,17
1077426,8619950043,287.0,297.0,126.0,1,0.652,728.0,0.0,17
1077427,8619958043,274.0,291.0,124.0,0,0.667,728.0,0.0,17
1077428,8619966045,266.0,285.0,120.0,0,0.701,728.0,0.0,17
1077429,8619974043,254.0,278.0,115.0,0,0.711,728.0,0.0,17
1077430,8619982045,241.0,269.0,109.0,0,0.717,728.0,0.0,17
1077431,8619990043,230.0,259.0,102.0,0,0.719,728.0,0.0,17
1077432,8619998047,217.0,249.0,93.0,0,0.73,728.0,0.0,17
1077433,8620006043,204.0,238.0,84.0,0,0.705,728.0,0.0,17
1077434,8620014043,196.0,228.0,75.0,0,0.68,728.0,0.0,17
1077435,8620022043,188.0,218.0,65.0,0,0.665,728.0,0.0,17
1077436,8620030043,179.0,209.0,55.0,0,0.635,728.0,0.0,17
1077437,8620038047,172.0,200.0,46.0,0,0.594,728.0,0.0,17
1077438,8620046044,164.0,191.0,37.0,0,0.569,728.0,0.0,17
1077439,8620054043,156.0,183.0,27.0,0,0.555,728.0,0.0,17
1077440,8620062047,150.0,175.0,19.0,0,0.503,728.0,0.0,17
1077441,8620070043,149.0,168.0,11.0,0,0.483,728.0,0.0,17
1077442,8620078046,148.0,164.0,4.0,0,0.469,728.0,0.0,17
1077443,8620086045,146.0,159.0,-3.0,0,0.487,728.0,0.0,17
1077444,8620094043,143.0,155.0,-8.0,0,0.46,728.0,0.0,17
1077445,8620102043,140.0,152.0,-13.0,0,0.474,728.0,0.0,17
1077446,8620110045,140.0,149.0,-17.0,0,0.463,728.0,0.0,17
1077447,8620118043,140.0,147.0,-21.0,0,0.474,728.0,0.0,17
1077448,8620126043,144.0,146.0,-24.0,0,0.461,728.0,0.0,17
1077449,8620134043,139.0,144.0,-26.0,0,0.444,728.0,0.0,17
1077450,8620142047,131.0,141.0,-29.0,0,0.474,728.0,0.0,17
1077451,8620150043,134.0,139.0,-31.0,0,0.458,728.0,0.0,17
1077452,8620158043,133.0,138.0,-33.0,0,0.464,728.0,0.0,17
1077453,8620166043,131.0,136.0,-35.0,0,0.469,728.0,0.0,17
1077454,8620174043,126.0,134.0,-37.0,0,0.475,728.0,0.0,17
1077455,8620182044,124.0,131.0,-39.0,0,0.481,728.0,0.0,17
1077456,8620190043,124.0,130.0,-40.0,0,0.462,728.0,0.0,17
1077457,8620198043,120.0,127.0,-42.0,0,0.489,728.0,0.0,17
1077458,8620206043,115.0,124.0,-44.0,0,0.495,728.0,0.0,17
1077459,8620214043,116.0,122.0,-46.0,0,0.501,728.0,0.0,17
1077460,8620222043,116.0,121.0,-48.0,0,0.507,728.0,0.0,17
1077461,8620230043,110.0,118.0,-50.0,0,0.513,728.0,0.0,17
1077462,8620238043,109.0,116.0,-52.0,0,0.518,728.0,0.0,17
1077463,8620246043,106.0,114.0,-54.0,0,0.524,728.0,0.0,17
1077464,8620254043,105.0,111.0,-56.0,0,0.53,728.0,0.0,17
1077465,8620262043,105.0,110.0,-57.0,0,0.51,728.0,0.0,17
1077466,8620270047,100.0,107.0,-59.0,0,0.538,728.0,0.0,17
1077467,8620278045,105.0,107.0,-60.0,0,0.518,728.0,0.0,17
1077468,8620286044,102.0,106.0,-61.0,0,0.52,728.0,0.0,17
1077469,8620294044,105.0,106.0,-62.0,0,0.523,728.0,0.0,17
1077470,8620302046,102.0,105.0,-63.0,0,0.525,728.0,0.0,17
1077471,8620310047,103.0,104.0,-63.0,1,0.503,728.0,0.0,17
1077472,8620318043,98.0,103.0,-64.0,0,0.527,728.0,0.0,17
1077473,8620326043,100.0,102.0,-64.0,1,0.505,728.0,0.0,17
1077474,8620334043,102.0,102.0,-65.0,0,0.529,728.0,0.0,17
1077475,8620342047,103.0,102.0,-65.0,1,0.507,728.0,0.0,17
1077476,8620350043,104.0,103.0,-64.0,0,0.525,728.0,0.0,17
1077477,8620358043,101.0,102.0,-64.0,1,0.503,728.0,0.0,17
1077478,8620366043,99.0,101.0,-64.0,0,0.503,728.0,0.0,17
1077479,8620374043,105.0,102.0,-64.0,0,0.502,728.0,0.0,17
1077480,8620382043,105.0,103.0,-63.0,0,0.52,728.0,0.0,17
1077481,8620390047,104.0,103.0,-63.0,1,0.499,728.0,0.0,17
1077482,8620398047,108.0,104.0,-62.0,0,0.517,728.0,0.0,17
1077483,8620406043,108.0,105.0,-61.0,0,0.514,728.0,0.0,17
1077484,8620414043,111.0,107.0,-60.0,0,0.51,728.0,0.0,17
1077485,8620422043,114.0,108.0,-58.0,0,0.527,728.0,0.0,17
1077486,8620430043,116.0,110.0,-56.0,0,0.521,728.0,0.0,17
1077487,8620438043,115.0,111.0,-55.0,0,0.494,728.0,0.0,17
1077488,8620446043,120.0,113.0,-53.0,0,0.511,728.0,0.0,17
1077489,8620454043,121.0,115.0,-51.0,0,0.505,728.0,0.0,17
1077490,8620462043,119.0,116.0,-49.0,0,0.498,728.0,0.0,17
1077491,8620470043,127.0,119.0,-47.0,0,0.492,728.0,0.0,17
1077492,8620478043,124.0,120.0,-45.0,0,0.486,728.0,0.0,17
1077493,8620486043,131.0,123.0,-43.0,0,0.48,728.0,0.0,17
1077494,8620494043,136.0,126.0,-41.0,0,0.474,728.0,0.0,17
1077495,8620502043,139.0,129.0,-38.0,0,0.488,728.0,0.0,17
1077496,8620510043,147.0,133.0,-35.0,0,0.478,728.0,0.0,17
1077497,8620518043,152.0,138.0,-31.0,0,0.489,728.0,0.0,17
1077498,8620526043,159.0,143.0,-27.0,0,0.477,728.0,0.0,17
1077499,8620534043,174.0,151.0,-22.0,0,0.484,728.0,0.0,17
1077500,8620542043,190.0,160.0,-15.0,0,0.504,728.0,0.0,17
1077501,8620550043,204.0,171.0,-8.0,0,0.483,728.0,0.0,17
1077502,8620558043,221.0,183.0,1.0,0,0.512,728.0,0.0,17
1077503,8620566044,235.0,196.0,11.0,0,0.555,728.0,0.0,17
1077504,8620574043,254.0,210.0,22.0,0,0.6,728.0,0.0,17
1077505,8620582043,270.0,224.0,34.0,0,0.649,728.0,0.0,17
1077506,8620590043,283.0,239.0,46.0,0,0.687,728.0,0.0,17
1077507,8620598043,296.0,252.0,59.0,0,0.736,728.0,0.0,17
1077508,8620606043,305.0,265.0,71.0,0,0.762,728.0,0.0,17
1077509,8620614045,315.0,277.0,84.0,0,0.804,728.0,0.0,17
1077510,8620622043,321.0,288.0,95.0,0,0.809,728.0,0.0,17
1077511,8620630044,324.0,297.0,105.0,0,0.816,728.0,0.0,17
1077512,8620638043,333.0,305.0,115.0,0,0.833,728.0,0.0,17
1077513,8620646043,332.0,312.0,124.0,0,0.831,728.0,0.0,17
1077514,8620654043,325.0,315.0,130.0,0,0.785,728.0,0.0,17
1077515,8620662044,327.0,318.0,136.0,0,0.791,728.0,0.0,17
1077516,8620670043,321.0,319.0,139.0,0,0.729,728.0,0.0,17
1077517,8620678043,317.0,318.0,142.0,0,0.731,728.0,0.0,17
1077518,8620686043,308.0,316.0,142.0,1,0.667,728.0,0.0,17
1077519,8620694043,298.0,311.0,141.0,0,0.684,728.0,0.0,17
1077520,8620702046,292.0,307.0,139.0,0,0.7,728.0,0.0,17
1077521,8620710043,282.0,301.0,135.0,0,0.736,728.0,0.0,17
1077522,8620718047,268.0,293.0,130.0,0,0.748,728.0,0.0,17
1077523,8620726043,257.0,284.0,124.0,0,0.756,728.0,0.0,17
1077524,8620734043,246.0,275.0,117.0,0,0.761,728.0,0.0,17
1077525,8620742043,234.0,265.0,108.0,0,0.774,728.0,0.0,17
1077526,8620750043,220.0,254.0,99.0,0,0.751,728.0,0.0,17
1077527,8620758043,211.0,244.0,90.0,0,0.727,728.0,0.0,17
1077528,8620766046,202.0,234.0,80.0,0,0.712,728.0,0.0,17
1077529,8620774043,188.0,222.0,69.0,0,0.691,728.0,0.0,17
1077530,8620782045,181.0,212.0,59.0,0,0.646,728.0,0.0,17
1077531,8620790043,173.0,203.0,49.0,0,0.614,728.0,0.0,17
1077532,8620798043,165.0,194.0,39.0,0,0.582,728.0,0.0,17
1077533,8620806043,161.0,186.0,30.0,0,0.54,728.0,0.0,17
1077534,8620814046,156.0,179.0,21.0,0,0.513,728.0,0.0,17
1077535,8620822044,149.0,171.0,13.0,0,0.475,728.0,0.0,17
1077536,8620830045,148.0,166.0,5.0,0,0.483,728.0,0.0,17
1077537,8620838044,148.0,161.0,-1.0,0,0.463,728.0,0.0,17
1077538,8620846046,146.0,158.0,-7.0,0,0.481,728.0,0.0,17
1077539,8620854044,141.0,154.0,-12.0,0,0.475,728.0,0.0,17
1077540,8620862046,140.0,150.0,-17.0,0,0.49,728.0,0.0,17
1077541,8620870043,139.0,148.0,-21.0,0,0.482,728.0,0.0,17
1077542,8620878043,133.0,144.0,-25.0,0,0.493,728.0,0.0,17
1077543,8620886046,133.0,141.0,-28.0,0,0.481,728.0,0.0,17
1077544,8620894043,125.0,137.0,-32.0,0,0.514,728.0,0.0,17
1077545,8620902043,126.0,135.0,-35.0,0,0.501,728.0,0.0,17
1077546,8620910043,121.0,131.0,-38.0,0,0.51,728.0,0.0,17
1077547,8620918043,121.0,129.0,-41.0,0,0.519,728.0,0.0,17
1077548,8620926043,114.0,125.0,-44.0,0,0.527,728.0,0.0,17
1077549,8620934043,118.0,123.0,-46.0,0,0.511,728.0,0.0,17
1077550,8620942043,112.0,121.0,-49.0,0,0.541,728.0,0.0,17
1077551,8620950043,108.0,118.0,-51.0,0,0.524,728.0,0.0,17
1077552,8620958043,108.0,115.0,-54.0,0,0.554,728.0,0.0,17
1077553,8620966043,106.0,113.0,-56.0,0,0.538,728.0,0.0,17
1077554,8620974043,101.0,110.0,-58.0,0,0.543,728.0,0.0,17
1077555,8620982043,98.0,107.0,-61.0,0,0.573,728.0,0.0,17
1077556,8620990043,99.0,105.0,-63.0,0,0.557,728.0,0.0,17
1077557,8620998047,95.0,103.0,-65.0,0,0.562,728.0,0.0,17
1077558,8621006043,96.0,101.0,-67.0,0,0.567,728.0,0.0,17
1077559,8621014043,98.0,100.0,-68.0,0,0.548,728.0,0.0,17
1077560,8621022044,96.0,99.0,-69.0,0,0.549,728.0,0.0,17
1077561,8621030045,93.0,98.0,-70.0,0,0.551,728.0,0.0,17
1077562,8621038044,96.0,97.0,-71.0,0,0.553,728.0,0.0,17
1077563,8621046043,94.0,97.0,-72.0,0,0.555,728.0,0.0,17
1077564,8621054043,95.0,96.0,-72.0,1,0.533,728.0,0.0,17
1077565,8621062047,92.0,95.0,-73.0,0,0.555,728.0,0.0,17
1077566,8621070043,96.0,95.0,-73.0,1,0.533,728.0,0.0,17
1077567,8621078043,94.0,95.0,-73.0,0,0.532,728.0,0.0,17
1077568,8621086043,99.0,96.0,-72.0,0,0.549,728.0,0.0,17
1077569,8621094045,98.0,96.0,-72.0,1,0.527,728.0,0.0,17
1077570,8621102045,100.0,97.0,-71.0,0,0.544,728.0,0.0,17
1077571,8621110043,97.0,97.0,-70.0,0,0.54,728.0,0.0,17
1077572,8621118045,100.0,98.0,-70.0,1,0.518,728.0,0.0,17
1077573,8621126046,101.0,99.0,-69.0,0,0.535,728.0,0.0,17
1077574,8621134042,102.0,99.0,-68.0,0,0.532,728.0,0.0,17
1077575,8621142043,107.0,101.0,-66.0,0,0.547,728.0,0.0,17
1077576,8621150046,109.0,103.0,-65.0,0,0.521,728.0,0.0,17
1077577,8621158043,108.0,104.0,-63.0,0,0.537,728.0,0.0,17
1077578,8621166043,108.0,105.0,-62.0,0,0.511,728.0,0.0,17
1077579,8621174043,112.0,107.0,-60.0,0,0.527,728.0,0.0,17
1077580,8621182044,110.0,108.0,-58.0,0,0.52,728.0,0.0,17
1077581,8621190045,115.0,109.0,-57.0,0,0.494,728.0,0.0,17
1077582,8621198043,116.0,111.0,-55.0,0,0.51,728.0,0.0,17
1077583,8621206043,117.0,112.0,-53.0,0,0.503,728.0,0.0,17
1077584,8621214043,119.0,114.0,-51.0,0,0.497,728.0,0.0,17
1077585,8621222043,122.0,116.0,-50.0,0,0.471,728.0,0.0,17
1077586,8621230043,123.0,118.0,-48.0,0,0.487,728.0,0.0,17
1077587,8621238043,124.0,119.0,-46.0,0,0.481,728.0,0.0,17
1077588,8621246043,126.0,121.0,-44.0,0,0.474,728.0,0.0,17
1077589,8621254043,132.0,124.0,-42.0,0,0.468,728.0,0.0,17
1077590,8621262043,134.0,126.0,-39.0,0,0.482,728.0,0.0,17
1077591,8621270043,142.0,130.0,-36.0,0,0.472,728.0,0.0,17
1077592,8621278043,145.0,134.0,-33.0,0,0.463,728.0,0.0,17
1077593,8621286043,158.0,140.0,-29.0,0,0.474,728.0,0.0,17
1077594,8621294043,172.0,147.0,-24.0,0,0.481,728.0,0.0,17
1077595,8621302043,185.0,157.0,-18.0,0,0.484,728.0,0.0,17
1077596,8621310043,199.0,167.0,-11.0,0,0.484,728.0,0.0,17
1077597,8621318043,216.0,179.0,-2.0,0,0.505,728.0,0.0,17
1077598,8621326046,240.0,194.0,8.0,0,0.547,728.0,0.0,17
1077599,8621334045,252.0,208.0,20.0,0,0.605,728.0,0.0,17
1077600,8621342043,268.0,222.0,32.0,0,0.642,728.0,0.0,17
1077601,8621350043,283.0,237.0,45.0,0,0.691,728.0,0.0,17
1077602,8621358043,301.0,253.0,58.0,0,0.731,728.0,0.0,17
1077603,8621366043,307.0,266.0,71.0,0,0.767,728.0,0.0,17
1077604,8621374046,319.0,279.0,84.0,0,0.8,728.0,0.0,17
1077605,8621382043,328.0,291.0,96.0,0,0.817,728.0,0.0,17
1077606,8621390043,334.0,301.0,108.0,0,0.84,728.0,0.0,17
1077607,8621398043,338.0,310.0,118.0,0,0.832,728.0,0.0,17
1077608,8621406043,337.0,317.0,128.0,0,0.845,728.0,0.0,17
1077609,8621414043,337.0,322.0,135.0,0,0.804,728.0,0.0,17
1077610,8621422043,336.0,325.0,141.0,0,0.791,728.0,0.0,17
1077611,8621430045,332.0,327.0,146.0,0,0.775,728.0,0.0,17
1077612,8621438043,324.0,326.0,149.0,0,0.734,728.0,0.0,17
1077613,8621446043,320.0,325.0,150.0,0,0.692,728.0,0.0,17
1077614,8621454043,311.0,321.0,150.0,1,0.671,728.0,0.0,17
1077615,8621462047,300.0,316.0,148.0,0,0.707,728.0,0.0,17
1077616,8621470043,290.0,310.0,144.0,0,0.742,728.0,0.0,17
1077617,8621478047,277.0,302.0,139.0,0,0.755,728.0,0.0,17
1077618,8621486045,269.0,294.0,133.0,0,0.764,728.0,0.0,17
1077619,8621494047,252.0,284.0,126.0,0,0.769,728.0,0.0,17
1077620,8621502045,239.0,273.0,117.0,0,0.784,728.0,0.0,17
1077621,8621510047,225.0,261.0,107.0,0,0.776,728.0,0.0,17
1077622,8621518044,211.0,249.0,97.0,0,0.75,728.0,0.0,17
1077623,8621526043,202.0,238.0,86.0,0,0.733,728.0,0.0,17
1077624,8621534045,191.0,226.0,75.0,0,0.701,728.0,0.0,17
1077625,8621542043,183.0,216.0,64.0,0,0.667,728.0,0.0,17
1077626,8621550046,172.0,205.0,53.0,0,0.632,728.0,0.0,17
1077627,8621558043,167.0,196.0,43.0,0,0.588,728.0,0.0,17
1077628,8621566043,161.0,187.0,33.0,0,0.558,728.0,0.0,17
1077629,8621574043,154.0,179.0,23.0,0,0.528,728.0,0.0,17
1077630,8621582043,152.0,173.0,15.0,0,0.476,728.0,0.0,17
1077631,8621590044,148.0,167.0,7.0,0,0.472,728.0,0.0,17
1077632,8621598043,145.0,161.0,0.0,0,0.473,728.0,0.0,17
1077633,8621606044,140.0,156.0,-7.0,0,0.493,728.0,0.0,17
1077634,8621614043,140.0,152.0,-12.0,0,0.469,728.0,0.0,17
1077635,8621622043,135.0,148.0,-18.0,0,0.506,728.0,0.0,17
1077636,8621630043,127.0,143.0,-23.0,0,0.501,728.0,0.0,17
1077637,8621638043,126.0,139.0,-28.0,0,0.516,728.0,0.0,17
1077638,8621646047,124.0,135.0,-32.0,0,0.508,728.0,0.0,17
1077639,8621654043,125.0,133.0,-36.0,0,0.52,728.0,0.0,17
1077640,8621662043,120.0,130.0,-39.0,0,0.508,728.0,0.0,17
1077641,8621670043,117.0,127.0,-42.0,0,0.517,728.0,0.0,17
1077642,8621678043,112.0,123.0,-46.0,0,0.548,728.0,0.0,17
1077643,8621686047,108.0,119.0,-49.0,0,0.536,728.0,0.0,17
1077644,8621694043,110.0,117.0,-52.0,0,0.544,728.0,0.0,17
1077645,8621702044,106.0,114.0,-54.0,0,0.529,728.0,0.0,17
1077646,8621710045,100.0,111.0,-57.0,0,0.557,728.0,0.0,17
1077647,8621718043,103.0,109.0,-60.0,0,0.564,728.0,0.0,17
1077648,8621726045,96.0,106.0,-62.0,0,0.548,728.0,0.0,17
1077649,8621734043,97.0,104.0,-64.0,0,0.553,728.0,0.0,17
1077650,8621742046,93.0,101.0,-67.0,0,0.581,728.0,0.0,17
1077651,8621750045,93.0,99.0,-69.0,0,0.565,728.0,0.0,17
1077652,8621758046,93.0,98.0,-70.0,0,0.547,728.0,0.0,17
1077653,8621766046,91.0,96.0,-72.0,0,0.571,728.0,0.0,17
1077654,8621774044,89.0,94.0,-73.0,0,0.553,728.0,0.0,17
1077655,8621782043,87.0,93.0,-75.0,0,0.578,728.0,0.0,17
1077656,8621790043,88.0,91.0,-76.0,0,0.559,728.0,0.0,17
1077657,8621798043,88.0,91.0,-77.0,0,0.561,728.0,0.0,17
1077658,8621806043,90.0,90.0,-77.0,1,0.541,728.0,0.0,17
1077659,8621814044,87.0,90.0,-78.0,0,0.561,728.0,0.0,17
1077660,8621822043,88.0,89.0,-78.0,1,0.541,728.0,0.0,17
1077661,8621830043,91.0,90.0,-78.0,0,0.54,728.0,0.0,17
1077662,8621838045,94.0,91.0,-78.0,0,0.538,728.0,0.0,17
1077663,8621846047,92.0,91.0,-77.0,0,0.554,728.0,0.0,17
1077664,8621854045,95.0,92.0,-76.0,0,0.55,728.0,0.0,17
1077665,8621862046,92.0,92.0,-75.0,0,0.546,728.0,0.0,17
1077666,8621870043,99.0,94.0,-74.0,0,0.542,728.0,0.0,17
1077667,8621878045,99.0,95.0,-73.0,0,0.538,728.0,0.0,17
1077668,8621886044,101.0,96.0,-72.0,0,0.534,728.0,0.0,17
1077669,8621894043,104.0,98.0,-70.0,0,0.548,728.0,0.0,17
1077670,8621902043,107.0,100.0,-68.0,0,0.541,728.0,0.0,17
1077671,8621910043,109.0,102.0,-66.0,0,0.534,728.0,0.0,17
1077672,8621918044,112.0,105.0,-63.0,0,0.546,728.0,0.0,17
1077673,8621926043,116.0,108.0,-61.0,0,0.517,728.0,0.0,17
1077674,8621934043,116.0,110.0,-58.0,0,0.529,728.0,0.0,17
1077675,8621942043,116.0,111.0,-56.0,0,0.501,728.0,0.0,17
1077676,8621950043,116.0,112.0,-54.0,0,0.494,728.0,0.0,17
1077677,8621958043,120.0,114.0,-52.0,0,0.487,728.0,0.0,17
1077678,8621966043,122.0,116.0,-50.0,0,0.481,728.0,0.0,17
1077679,8621974043,119.0,117.0,-48.0,0,0.474,728.0,0.0,17
1077680,8621982043,124.0,119.0,-46.0,0,0.468,728.0,0.0,17
1077681,8621990043,127.0,121.0,-44.0,0,0.461,728.0,0.0,17
1077682,8621998043,125.0,122.0,-42.0,0,0.455,728.0,0.0,17
1077683,8622006043,127.0,123.0,-41.0,0,0.431,728.0,0.0,17
1077684,8622014043,125.0,123.0,-39.0,0,0.446,728.0,0.0,17
1077685,8622022043,132.0,126.0,-38.0,0,0.421,728.0,0.0,17
1077686,8622030043,136.0,128.0,-36.0,0,0.436,728.0,0.0,17
1077687,8622038043,140.0,131.0,-33.0,0,0.449,728.0,0.0,17
1077688,8622046043,151.0,136.0,-30.0,0,0.44,728.0,0.0,17
1077689,8622054043,163.0,142.0,-26.0,0,0.45,728.0,0.0,17
1077690,8622062043,172.0,150.0,-21.0,0,0.457,728.0,0.0,17
1077691,8622070043,184.0,158.0,-15.0,0,0.461,728.0,0.0,17
1077692,8622078043,204.0,169.0,-8.0,0,0.462,728.0,0.0,17
1077693,8622086047,220.0,181.0,1.0,0,0.511,728.0,0.0,17
1077694,8622094047,235.0,194.0,11.0,0,0.552,728.0,0.0,17
1077695,8622102043,252.0,208.0,22.0,0,0.597,728.0,0.0,17
1077696,8622110043,270.0,223.0,34.0,0,0.643,728.0,0.0,17
1077697,8622118043,286.0,239.0,47.0,0,0.691,728.0,0.0,17
1077698,8622126043,298.0,253.0,60.0,0,0.728,728.0,0.0,17
1077699,8622134043,308.0,266.0,73.0,0,0.762,728.0,0.0,17
1077700,8622142043,316.0,278.0,85.0,0,0.781,728.0,0.0,17
1077701,8622150043,328.0,290.0,97.0,0,0.807,728.0,0.0,17
1077702,8622158043,332.0,300.0,109.0,0,0.829,728.0,0.0,17
1077703,8622166043,333.0,308.0,119.0,0,0.82,728.0,0.0,17
1077704,8622174043,337.0,315.0,127.0,0,0.8,728.0,0.0,17
1077705,8622182043,333.0,320.0,135.0,0,0.809,728.0,0.0,17
1077706,8622190043,330.0,322.0,140.0,0,0.759,728.0,0.0,17
1077707,8622198043,325.0,323.0,144.0,0,0.742,728.0,0.0,17
1077708,8622206043,317.0,321.0,146.0,0,0.702,728.0,0.0,17
1077709,8622214043,308.0,318.0,147.0,0,0.682,728.0,0.0,17
1077710,8622222043,302.0,314.0,145.0,1,0.697,728.0,0.0,17
1077711,8622230047,291.0,309.0,143.0,0,0.693,728.0,0.0,17
1077712,8622238043,279.0,301.0,139.0,0,0.726,728.0,0.0,17
1077713,8622246043,263.0,292.0,133.0,0,0.755,728.0,0.0,17
1077714,8622254047,249.0,282.0,125.0,0,0.775,728.0,0.0,17
1077715,8622262047,239.0,271.0,117.0,0,0.759,728.0,0.0,17
1077716,8622270047,228.0,261.0,108.0,0,0.754,728.0,0.0,17
1077717,8622278047,211.0,249.0,97.0,0,0.755,728.0,0.0,17
1077718,8622286045,204.0,238.0,87.0,0,0.716,728.0,0.0,17
1077719,8622294043,191.0,227.0,76.0,0,0.698,728.0,0.0,17
1077720,8622302045,178.0,215.0,65.0,0,0.666,728.0,0.0,17
1077721,8622310043,171.0,204.0,54.0,0,0.633,728.0,0.0,17
1077722,8622318043,159.0,193.0,43.0,0,0.6,728.0,0.0,17
1077723,8622326044,156.0,184.0,32.0,0,0.567,728.0,0.0,17
1077724,8622334043,150.0,176.0,23.0,0,0.514,728.0,0.0,17
1077725,8622342043,143.0,168.0,13.0,0,0.502,728.0,0.0,17
1077726,8622350043,144.0,162.0,5.0,0,0.464,728.0,0.0,17
1077727,8622358046,144.0,158.0,-2.0,0,0.465,728.0,0.0,17
1077728,8622366043,137.0,153.0,-9.0,0,0.483,728.0,0.0,17
1077729,8622374043,135.0,148.0,-14.0,0,0.46,728.0,0.0,17
1077730,8622382043,127.0,143.0,-20.0,0,0.496,728.0,0.0,17
1077731,8622390043,132.0,141.0,-25.0,0,0.491,728.0,0.0,17
1077732,8622398043,122.0,136.0,-29.0,0,0.483,728.0,0.0,17
1077733,8622406043,126.0,134.0,-33.0,0,0.494,728.0,0.0,17
1077734,8622414043,122.0,131.0,-36.0,0,0.483,728.0,0.0,17
1077735,8622422043,122.0,129.0,-39.0,0,0.491,728.0,0.0,17
1077736,8622430046,116.0,126.0,-42.0,0,0.499,728.0,0.0,17
1077737,8622438045,116.0,123.0,-45.0,0,0.507,728.0,0.0,17
1077738,8622446043,112.0,121.0,-48.0,0,0.515,728.0,0.0,17
1077739,8622454045,112.0,118.0,-50.0,0,0.501,728.0,0.0,17
1077740,8622462043,108.0,116.0,-52.0,0,0.505,728.0,0.0,17
1077741,8622470047,103.0,113.0,-55.0,0,0.533,728.0,0.0,17
1077742,8622478043,100.0,110.0,-57.0,0,0.518,728.0,0.0,17
1077743,8622486043,100.0,107.0,-59.0,0,0.522,728.0,0.0,17
1077744,8622494043,99.0,105.0,-62.0,0,0.549,728.0,0.0,17
1077745,8622502043,95.0,103.0,-64.0,0,0.534,728.0,0.0,17
1077746,8622510043,92.0,100.0,-66.0,0,0.539,728.0,0.0,17
1077747,8622518043,92.0,98.0,-68.0,0,0.543,728.0,0.0,17
1077748,8622526043,94.0,97.0,-69.0,0,0.526,728.0,0.0,17
1077749,8622534045,93.0,96.0,-70.0,0,0.527,728.0,0.0,17
1077750,8622542046,91.0,95.0,-72.0,0,0.551,728.0,0.0,17
1077751,8622550044,86.0,93.0,-73.0,0,0.533,728.0,0.0,17
1077752,8622558043,89.0,92.0,-74.0,0,0.535,728.0,0.0,17
1077753,8622566047,89.0,91.0,-75.0,0,0.537,728.0,0.0,17
1077754,8622574045,88.0,90.0,-75.0,1,0.517,728.0,0.0,17
1077755,8622582043,91.0,91.0,-75.0,0,0.516,728.0,0.0,17
1077756,8622590046,90.0,90.0,-76.0,0,0.536,728.0,0.0,17
1077757,8622598046,87.0,90.0,-76.0,1,0.516,728.0,0.0,17
1077758,8622606043,92.0,90.0,-76.0,0,0.515,728.0,0.0,17
1077759,8622614046,92.0,91.0,-75.0,0,0.53,728.0,0.0,17
1077760,8622622045,92.0,91.0,-75.0,1,0.51,728.0,0.0,17
1077761,8622630047,94.0,92.0,-74.0,0,0.525,728.0,0.0,17
1077762,8622638045,98.0,93.0,-73.0,0,0.521,728.0,0.0,17
1077763,8622646046,98.0,94.0,-72.0,0,0.518,728.0,0.0,17
1077764,8622654045,102.0,96.0,-70.0,0,0.531,728.0,0.0,17
1077765,8622662043,102.0,98.0,-68.0,0,0.525,728.0,0.0,17
1077766,8622670043,105.0,99.0,-67.0,0,0.501,728.0,0.0,17
1077767,8622678043,104.0,101.0,-65.0,0,0.515,728.0,0.0,17
1077768,8622686045,106.0,102.0,-63.0,0,0.509,728.0,0.0,17
1077769,8622694043,109.0,104.0,-61.0,0,0.502,728.0,0.0,17
1077770,8622702043,109.0,105.0,-60.0,0,0.479,728.0,0.0,17
1077771,8622710043,112.0,107.0,-58.0,0,0.493,728.0,0.0,17
1077772,8622718043,113.0,108.0,-56.0,0,0.487,728.0,0.0,17
1077773,8622726043,118.0,111.0,-54.0,0,0.48,728.0,0.0,17
1077774,8622734043,118.0,112.0,-52.0,0,0.474,728.0,0.0,17
1077775,8622742043,123.0,115.0,-49.0,0,0.486,728.0,0.0,17
1077776,8622750043,124.0,117.0,-47.0,0,0.459,728.0,0.0,17
1077777,8622758043,122.0,118.0,-45.0,0,0.453,728.0,0.0,17
1077778,8622766043,126.0,120.0,-43.0,0,0.448,728.0,0.0,17
1077779,8622774043,131.0,123.0,-40.0,0,0.46,728.0,0.0,17
1077780,8622782043,127.0,124.0,-38.0,0,0.433,728.0,0.0,17
1077781,8622790043,131.0,126.0,-36.0,0,0.427,728.0,0.0,17
1077782,8622798043,130.0,127.0,-35.0,0,0.405,728.0,0.0,17
1077783,8622806043,127.0,127.0,-33.0,0,0.419,728.0,0.0,17
1077784,8622814046,134.0,128.0,-32.0,0,0.397,728.0,0.0,17
1077785,8622822043,135.0,130.0,-30.0,0,0.411,728.0,0.0,17
1077786,8622830043,137.0,132.0,-28.0,0,0.406,728.0,0.0,17
1077787,8622838043,140.0,134.0,-27.0,0,0.383,728.0,0.0,17
1077788,8622846043,144.0,136.0,-25.0,0,0.398,728.0,0.0,17
1077789,8622854043,157.0,141.0,-22.0,0,0.411,728.0,0.0,17
1077790,8622862043,164.0,147.0,-18.0,0,0.421,728.0,0.0,17
1077791,8622870043,177.0,154.0,-13.0,0,0.429,728.0,0.0,17
1077792,8622878043,197.0,165.0,-7.0,0,0.434,728.0,0.0,17
1077793,8622886043,213.0,176.0,1.0,0,0.488,728.0,0.0,17
1077794,8622894043,231.0,190.0,10.0,0,0.528,728.0,0.0,17
1077795,8622902043,248.0,204.0,21.0,0,0.585,728.0,0.0,17
1077796,8622910043,267.0,219.0,33.0,0,0.63,728.0,0.0,17
1077797,8622918043,286.0,235.0,46.0,0,0.676,728.0,0.0,17
1077798,8622926043,300.0,251.0,59.0,0,0.712,728.0,0.0,17
1077799,8622934043,316.0,267.0,73.0,0,0.757,728.0,0.0,17
1077800,8622942043,325.0,281.0,87.0,0,0.79,728.0,0.0,17
1077801,8622950043,338.0,295.0,101.0,0,0.819,728.0,0.0,17
1077802,8622958043,347.0,307.0,114.0,0,0.833,728.0,0.0,17
1077803,8622966043,351.0,318.0,126.0,0,0.841,728.0,0.0,17
1077804,8622974043,355.0,327.0,136.0,0,0.829,728.0,0.0,17
1077805,8622982043,352.0,333.0,146.0,0,0.839,728.0,0.0,17
1077806,8622990043,352.0,338.0,153.0,0,0.798,728.0,0.0,17
1077807,8622998043,348.0,340.0,159.0,0,0.784,728.0,0.0,17
1077808,8623006043,344.0,341.0,163.0,0,0.749,728.0,0.0,17
1077809,8623014047,338.0,340.0,165.0,0,0.711,728.0,0.0,17
1077810,8623022043,333.0,339.0,166.0,0,0.691,728.0,0.0,17
1077811,8623030043,319.0,334.0,165.0,1,0.689,728.0,0.0,17
1077812,8623038043,314.0,329.0,163.0,0,0.703,728.0,0.0,17
1077813,8623046047,301.0,322.0,159.0,0,0.735,728.0,0.0,17
1077814,8623054046,288.0,314.0,153.0,0,0.764,728.0,0.0,17
1077815,8623062043,276.0,305.0,147.0,0,0.754,728.0,0.0,17
1077816,8623070047,264.0,295.0,139.0,0,0.775,728.0,0.0,17
1077817,8623078044,246.0,283.0,129.0,0,0.787,728.0,0.0,17
1077818,8623086043,234.0,271.0,119.0,0,0.766,728.0,0.0,17
1077819,8623094045,220.0,259.0,108.0,0,0.755,728.0,0.0,17
1077820,8623102043,208.0,246.0,97.0,0,0.728,728.0,0.0,17
1077821,8623110047,197.0,234.0,85.0,0,0.709,728.0,0.0,17
1077822,8623118046,188.0,223.0,73.0,0,0.677,728.0,0.0,17
1077823,8623126047,176.0,212.0,62.0,0,0.635,728.0,0.0,17
1077824,8623134046,166.0,201.0,50.0,0,0.614,728.0,0.0,17
1077825,8623142043,160.0,191.0,39.0,0,0.572,728.0,0.0,17
1077826,8623150043,153.0,182.0,29.0,0,0.534,728.0,0.0,17
1077827,8623158043,147.0,173.0,19.0,0,0.509,728.0,0.0,17
1077828,8623166043,141.0,165.0,9.0,0,0.487,728.0,0.0,17
1077829,8623174045,138.0,159.0,1.0,0,0.473,728.0,0.0,17
1077830,8623182045,132.0,152.0,-7.0,0,0.492,728.0,0.0,17
1077831,8623190043,125.0,146.0,-14.0,0,0.492,728.0,0.0,17
1077832,8623198043,123.0,140.0,-21.0,0,0.51,728.0,0.0,17
1077833,8623206046,124.0,136.0,-27.0,0,0.507,728.0,0.0,17
1077834,8623214043,119.0,132.0,-32.0,0,0.502,728.0,0.0,17
1077835,8623222043,116.0,128.0,-37.0,0,0.514,728.0,0.0,17
1077836,8623230043,113.0,124.0,-42.0,0,0.527,728.0,0.0,17
1077837,8623238043,108.0,120.0,-46.0,0,0.518,728.0,0.0,17
1077838,8623246043,103.0,116.0,-50.0,0,0.528,728.0,0.0,17
1077839,8623254043,107.0,114.0,-53.0,0,0.516,728.0,0.0,17
1077840,8623262043,98.0,110.0,-57.0,0,0.545,728.0,0.0,17
1077841,8623270043,96.0,107.0,-60.0,0,0.533,728.0,0.0,17
1077842,8623278043,92.0,103.0,-63.0,0,0.54,728.0,0.0,17
1077843,8623286043,89.0,100.0,-67.0,0,0.569,728.0,0.0,17
1077844,8623294043,87.0,97.0,-70.0,0,0.557,728.0,0.0,17
1077845,8623302046,88.0,95.0,-72.0,0,0.543,728.0,0.0,17
1077846,8623310046,85.0,92.0,-74.0,0,0.547,728.0,0.0,17
1077847,8623318043,81.0,90.0,-77.0,0,0.573,728.0,0.0,17
1077848,8623326043,85.0,88.0,-79.0,0,0.558,728.0,0.0,17
1077849,8623334043,85.0,88.0,-80.0,0,0.541,728.0,0.0,17
1077850,8623342043,82.0,86.0,-81.0,0,0.542,728.0,0.0,17
1077851,8623350043,88.0,87.0,-82.0,0,0.543,728.0,0.0,17
1077852,8623358043,81.0,85.0,-82.0,1,0.524,728.0,0.0,17
1077853,8623366043,84.0,85.0,-83.0,0,0.544,728.0,0.0,17
1077854,8623374043,83.0,84.0,-83.0,1,0.525,728.0,0.0,17
1077855,8623382043,80.0,83.0,-83.0,0,0.523,728.0,0.0,17
1077856,8623390043,85.0,84.0,-83.0,0,0.522,728.0,0.0,17
1077857,8623398043,84.0,84.0,-83.0,0,0.521,728.0,0.0,17
1077858,8623406047,86.0,84.0,-83.0,0,0.52,728.0,0.0,17
1077859,8623414046,84.0,84.0,-82.0,0,0.535,728.0,0.0,17
1077860,8623422045,87.0,85.0,-82.0,1,0.516,728.0,0.0,17
1077861,8623430045,88.0,86.0,-81.0,0,0.531,728.0,0.0,17
1077862,8623438046,91.0,87.0,-80.0,0,0.527,728.0,0.0,17
1077863,8623446045,85.0,86.0,-79.0,0,0.524,728.0,0.0,17
1077864,8623454044,91.0,88.0,-78.0,0,0.521,728.0,0.0,17
1077865,8623462046,92.0,89.0,-77.0,0,0.518,728.0,0.0,17
1077866,8623470045,96.0,90.0,-75.0,0,0.531,728.0,0.0,17
1077867,8623478045,92.0,91.0,-74.0,0,0.509,728.0,0.0,17
1077868,8623486046,99.0,93.0,-72.0,0,0.522,728.0,0.0,17
1077869,8623494046,102.0,95.0,-70.0,0,0.516,728.0,0.0,17
1077870,8623502043,104.0,97.0,-68.0,0,0.511,728.0,0.0,17
1077871,8623510043,106.0,99.0,-66.0,0,0.505,728.0,0.0,17
1077872,8623518043,109.0,102.0,-64.0,0,0.499,728.0,0.0,17
1077873,8623526043,110.0,104.0,-61.0,0,0.511,728.0,0.0,17
1077874,8623534043,114.0,106.0,-59.0,0,0.485,728.0,0.0,17
1077875,8623542043,114.0,108.0,-56.0,0,0.497,728.0,0.0,17
1077876,8623550043,116.0,110.0,-54.0,0,0.471,728.0,0.0,17
1077877,8623558043,120.0,112.0,-51.0,0,0.483,728.0,0.0,17
1077878,8623566043,118.0,114.0,-49.0,0,0.458,728.0,0.0,17
1077879,8623574043,124.0,116.0,-47.0,0,0.453,728.0,0.0,17
1077880,8623582043,122.0,118.0,-45.0,0,0.447,728.0,0.0,17
1077881,8623590043,124.0,119.0,-42.0,0,0.459,728.0,0.0,17
1077882,8623598043,124.0,120.0,-41.0,0,0.418,728.0,0.0,17
1077883,8623606047,127.0,122.0,-39.0,0,0.432,728.0,0.0,17
1077884,8623614043,133.0,125.0,-37.0,0,0.427,728.0,0.0,17
1077885,8623622043,135.0,127.0,-34.0,0,0.439,728.0,0.0,17
1077886,8623630043,134.0,129.0,-32.0,0,0.414,728.0,0.0,17
1077887,8623638043,140.0,132.0,-30.0,0,0.409,728.0,0.0,17
1077888,8623646043,144.0,135.0,-27.0,0,0.421,728.0,0.0,17
1077889,8623654043,142.0,136.0,-25.0,0,0.397,728.0,0.0,17
1077890,8623662043,141.0,137.0,-23.0,0,0.392,728.0,0.0,17
1077891,8623670043,146.0,140.0,-21.0,0,0.387,728.0,0.0,17
1077892,8623678044,145.0,141.0,-19.0,0,0.382,728.0,0.0,17
1077893,8623686043,147.0,142.0,-17.0,0,0.378,728.0,0.0,17
1077894,8623694043,152.0,145.0,-15.0,0,0.373,728.0,0.0,17
1077895,8623702043,147.0,145.0,-13.0,0,0.368,728.0,0.0,17
1077896,8623710043,153.0,147.0,-12.0,0,0.347,728.0,0.0,17
1077897,8623718044,151.0,148.0,-10.0,0,0.362,728.0,0.0,17
1077898,8623726044,149.0,148.0,-9.0,0,0.341,728.0,0.0,17
1077899,8623734047,156.0,150.0,-8.0,0,0.338,728.0,0.0,17
1077900,8623742043,158.0,152.0,-6.0,0,0.353,728.0,0.0,17
1077901,8623750043,169.0,156.0,-4.0,0,0.35,728.0,0.0,17
1077902,8623758045,179.0,162.0,-1.0,0,0.376,728.0,0.0,17
1077903,8623766046,191.0,169.0,4.0,0,0.428,728.0,0.0,17
1077904,8623774045,204.0,177.0,9.0,0,0.44,728.0,0.0,17
1077905,8623782044,219.0,187.0,16.0,0,0.496,728.0,0.0,17
1077906,8623790043,235.0,199.0,24.0,0,0.534,728.0,0.0,17
1077907,8623798043,254.0,212.0,33.0,0,0.574,728.0,0.0,17
1077908,8623806043,274.0,227.0,44.0,0,0.632,728.0,0.0,17
1077909,8623814043,288.0,242.0,56.0,0,0.675,728.0,0.0,17
1077910,8623822043,306.0,258.0,69.0,0,0.719,728.0,0.0,17
1077911,8623830043,322.0,273.0,82.0,0,0.751,728.0,0.0,17
1077912,8623838043,334.0,288.0,95.0,0,0.779,728.0,0.0,17
1077913,8623846043,345.0,302.0,109.0,0,0.816,728.0,0.0,17
1077914,8623854043,353.0,314.0,121.0,0,0.817,728.0,0.0,17
1077915,8623862043,356.0,324.0,133.0,0,0.834,728.0,0.0,17
1077916,8623870043,368.0,335.0,144.0,0,0.836,728.0,0.0,17
1077917,8623878043,361.0,341.0,154.0,0,0.833,728.0,0.0,17
1077918,8623886043,360.0,346.0,161.0,0,0.793,728.0,0.0,17
1077919,8623894043,361.0,349.0,167.0,0,0.78,728.0,0.0,17
1077920,8623902043,353.0,350.0,172.0,0,0.765,728.0,0.0,17
1077921,8623910043,350.0,350.0,174.0,0,0.709,728.0,0.0,17
1077922,8623918043,340.0,348.0,175.0,0,0.69,728.0,0.0,17
1077923,8623926043,333.0,344.0,175.0,1,0.671,728.0,0.0,17
1077924,8623934043,324.0,339.0,172.0,0,0.722,728.0,0.0,17
1077925,8623942046,313.0,333.0,169.0,0,0.719,728.0,0.0,17
1077926,8623950047,299.0,325.0,163.0,0,0.769,728.0,0.0,17
1077927,8623958043,284.0,315.0,156.0,0,0.779,728.0,0.0,17
1077928,8623966043,275.0,305.0,149.0,0,0.769,728.0,0.0,17
1077929,8623974043,258.0,294.0,139.0,0,0.802,728.0,0.0,17
1077930,8623982043,242.0,281.0,129.0,0,0.785,728.0,0.0,17
1077931,8623990043,231.0,269.0,118.0,0,0.777,728.0,0.0,17
1077932,8623998043,219.0,257.0,107.0,0,0.755,728.0,0.0,17
1077933,8624006043,203.0,244.0,95.0,0,0.741,728.0,0.0,17
1077934,8624014043,191.0,231.0,82.0,0,0.72,728.0,0.0,17
1077935,8624022043,179.0,218.0,70.0,0,0.68,728.0,0.0,17
1077936,8624030043,169.0,206.0,57.0,0,0.657,728.0,0.0,17
1077937,8624038047,159.0,195.0,45.0,0,0.616,728.0,0.0,17
1077938,8624046043,155.0,185.0,34.0,0,0.576,728.0,0.0,17
1077939,8624054043,148.0,176.0,23.0,0,0.548,728.0,0.0,17
1077940,8624062043,145.0,169.0,13.0,0,0.511,728.0,0.0,17
1077941,8624070043,139.0,161.0,4.0,0,0.476,728.0,0.0,17
1077942,8624078043,134.0,155.0,-4.0,0,0.47,728.0,0.0,17
1077943,8624086043,133.0,150.0,-12.0,0,0.489,728.0,0.0,17
1077944,8624094043,127.0,144.0,-18.0,0,0.469,728.0,0.0,17
1077945,8624102043,127.0,140.0,-24.0,0,0.484,728.0,0.0,17
1077946,8624110043,122.0,136.0,-30.0,0,0.5,728.0,0.0,17
1077947,8624118043,122.0,132.0,-35.0,0,0.494,728.0,0.0,17
1077948,8624126044,118.0,129.0,-39.0,0,0.485,728.0,0.0,17
1077949,8624134043,116.0,126.0,-43.0,0,0.496,728.0,0.0,17
1077950,8624142043,112.0,122.0,-46.0,0,0.484,728.0,0.0,17
1077951,8624150044,109.0,119.0,-50.0,0,0.514,728.0,0.0,17
1077952,8624158043,106.0,116.0,-53.0,0,0.502,728.0,0.0,17
1077953,8624166043,102.0,113.0,-56.0,0,0.51,728.0,0.0,17
1077954,8624174043,101.0,110.0,-59.0,0,0.518,728.0,0.0,17
1077955,8624182043,103.0,108.0,-61.0,0,0.503,728.0,0.0,17
1077956,8624190043,100.0,106.0,-63.0,0,0.508,728.0,0.0,17
1077957,8624198043,96.0,104.0,-66.0,0,0.535,728.0,0.0,17
1077958,8624206043,98.0,102.0,-67.0,0,0.499,728.0,0.0,17
1077959,8624214043,92.0,100.0,-69.0,0,0.523,728.0,0.0,17
1077960,8624222043,90.0,97.0,-71.0,0,0.527,728.0,0.0,17
1077961,8624230046,87.0,95.0,-73.0,0,0.532,728.0,0.0,17
1077962,8624238043,86.0,93.0,-75.0,0,0.537,728.0,0.0,17
1077963,8624246043,84.0,91.0,-76.0,0,0.52,728.0,0.0,17
1077964,8624254045,84.0,89.0,-78.0,0,0.544,728.0,0.0,17
1077965,8624262045,82.0,87.0,-79.0,0,0.527,728.0,0.0,17
1077966,8624270045,83.0,86.0,-81.0,0,0.55,728.0,0.0,17
1077967,8624278046,84.0,86.0,-81.0,1,0.513,728.0,0.0,17
1077968,8624286043,85.0,86.0,-82.0,0,0.534,728.0,0.0,17
1077969,8624294044,86.0,86.0,-82.0,1,0.515,728.0,0.0,17
1077970,8624302045,82.0,85.0,-82.0,0,0.515,728.0,0.0,17
1077971,8624310043,84.0,85.0,-82.0,0,0.515,728.0,0.0,17
1077972,8624318047,86.0,85.0,-82.0,0,0.515,728.0,0.0,17
1077973,8624326044,86.0,85.0,-82.0,0,0.515,728.0,0.0,17
1077974,8624334045,88.0,86.0,-81.0,0,0.53,728.0,0.0,17
1077975,8624342045,89.0,87.0,-80.0,0,0.527,728.0,0.0,17
1077976,8624350043,90.0,87.0,-79.0,0,0.525,728.0,0.0,17
1077977,8624358045,92.0,89.0,-78.0,0,0.522,728.0,0.0,17
1077978,8624366046,91.0,89.0,-77.0,0,0.52,728.0,0.0,17
1077979,8624374045,94.0,90.0,-76.0,0,0.517,728.0,0.0,17
1077980,8624382043,96.0,92.0,-74.0,0,0.531,728.0,0.0,17
1077981,8624390044,101.0,94.0,-73.0,0,0.509,728.0,0.0,17
1077982,8624398043,100.0,95.0,-71.0,0,0.523,728.0,0.0,17
1077983,8624406043,108.0,98.0,-68.0,0,0.535,728.0,0.0,17
1077984,8624414043,107.0,101.0,-66.0,0,0.51,728.0,0.0,17
1077985,8624422043,108.0,102.0,-64.0,0,0.505,728.0,0.0,17
1077986,8624430043,114.0,105.0,-61.0,0,0.517,728.0,0.0,17
1077987,8624438043,112.0,107.0,-59.0,0,0.492,728.0,0.0,17
1077988,8624446043,115.0,109.0,-56.0,0,0.504,728.0,0.0,17
1077989,8624454043,116.0,111.0,-54.0,0,0.479,728.0,0.0,17
1077990,8624462043,119.0,113.0,-52.0,0,0.474,728.0,0.0,17
1077991,8624470043,120.0,114.0,-50.0,0,0.469,728.0,0.0,17
1077992,8624478043,123.0,116.0,-47.0,0,0.481,728.0,0.0,17
1077993,8624486043,123.0,118.0,-45.0,0,0.456,728.0,0.0,17
1077994,8624494043,125.0,120.0,-43.0,0,0.451,728.0,0.0,17
1077995,8624502043,127.0,122.0,-41.0,0,0.446,728.0,0.0,17
1077996,8624510043,131.0,124.0,-39.0,0,0.441,728.0,0.0,17
1077997,8624518043,132.0,126.0,-37.0,0,0.435,728.0,0.0,17
1077998,8624526043,132.0,127.0,-35.0,0,0.43,728.0,0.0,17
1077999,8624534043,137.0,130.0,-32.0,0,0.442,728.0,0.0,17
1078000,8624542043,136.0,131.0,-30.0,0,0.417,728.0,0.0,17
1078001,8624550043,139.0,133.0,-28.0,0,0.412,728.0,0.0,17
1078002,8624558043,138.0,134.0,-26.0,0,0.407,728.0,0.0,17
1078003,8624566043,135.0,134.0,-25.0,0,0.386,728.0,0.0,17
1078004,8624574043,139.0,136.0,-24.0,0,0.384,728.0,0.0,17
1078005,8624582043,137.0,136.0,-23.0,0,0.381,728.0,0.0,17
1078006,8624590043,140.0,137.0,-21.0,0,0.395,728.0,0.0,17
1078007,8624598043,144.0,139.0,-20.0,0,0.374,728.0,0.0,17
1078008,8624606043,145.0,140.0,-19.0,0,0.372,728.0,0.0,17
1078009,8624614043,148.0,142.0,-17.0,0,0.385,728.0,0.0,17
1078010,8624622043,153.0,145.0,-15.0,0,0.381,728.0,0.0,17
1078011,8624630043,158.0,148.0,-13.0,0,0.376,728.0,0.0,17
1078012,8624638043,169.0,153.0,-10.0,0,0.388,728.0,0.0,17
1078013,8624646043,181.0,160.0,-6.0,0,0.398,728.0,0.0,17
1078014,8624654043,191.0,167.0,-1.0,0,0.409,728.0,0.0,17
1078015,8624662045,206.0,177.0,6.0,0,0.463,728.0,0.0,17
1078016,8624670046,220.0,187.0,13.0,0,0.481,728.0,0.0,17
1078017,8624678043,238.0,200.0,22.0,0,0.537,728.0,0.0,17
1078018,8624686043,258.0,214.0,32.0,0,0.578,728.0,0.0,17
1078019,8624694043,276.0,229.0,43.0,0,0.622,728.0,0.0,17
1078020,8624702043,290.0,244.0,56.0,0,0.678,728.0,0.0,17
1078021,8624710047,304.0,258.0,68.0,0,0.7,728.0,0.0,17
1078022,8624718044,320.0,273.0,82.0,0,0.754,728.0,0.0,17
1078023,8624726043,327.0,286.0,94.0,0,0.764,728.0,0.0,17
1078024,8624734043,337.0,299.0,107.0,0,0.802,728.0,0.0,17
1078025,8624742043,344.0,310.0,119.0,0,0.814,728.0,0.0,17
1078026,8624750043,345.0,318.0,129.0,0,0.807,728.0,0.0,17
1078027,8624758043,345.0,325.0,138.0,0,0.805,728.0,0.0,17
1078028,8624766043,341.0,329.0,146.0,0,0.8,728.0,0.0,17
1078029,8624774043,340.0,331.0,151.0,0,0.751,728.0,0.0,17
1078030,8624782043,335.0,332.0,155.0,0,0.736,728.0,0.0,17
1078031,8624790045,328.0,331.0,158.0,0,0.72,728.0,0.0,17
1078032,8624798043,324.0,329.0,158.0,1,0.663,728.0,0.0,17
1078033,8624806043,316.0,326.0,158.0,0,0.663,728.0,0.0,17
1078034,8624814043,308.0,322.0,156.0,0,0.697,728.0,0.0,17
1078035,8624822043,298.0,316.0,152.0,0,0.731,728.0,0.0,17
1078036,8624830046,284.0,308.0,147.0,0,0.745,728.0,0.0,17
1078037,8624838047,272.0,299.0,141.0,0,0.755,728.0,0.0,17
1078038,8624846043,260.0,290.0,134.0,0,0.763,728.0,0.0,17
1078039,8624854047,247.0,280.0,125.0,0,0.781,728.0,0.0,17
1078040,8624862047,232.0,268.0,116.0,0,0.765,728.0,0.0,17
1078041,8624870047,219.0,256.0,106.0,0,0.759,728.0,0.0,17
1078042,8624878044,205.0,244.0,94.0,0,0.757,728.0,0.0,17
1078043,8624886043,188.0,230.0,83.0,0,0.72,728.0,0.0,17
1078044,8624894043,183.0,219.0,71.0,0,0.701,728.0,0.0,17
1078045,8624902047,173.0,208.0,59.0,0,0.669,728.0,0.0,17
1078046,8624910043,164.0,197.0,48.0,0,0.628,728.0,0.0,17
1078047,8624918045,157.0,187.0,37.0,0,0.598,728.0,0.0,17
1078048,8624926043,156.0,180.0,27.0,0,0.558,728.0,0.0,17
1078049,8624934046,150.0,173.0,18.0,0,0.521,728.0,0.0,17
1078050,8624942043,145.0,166.0,9.0,0,0.499,728.0,0.0,17
1078051,8624950046,145.0,161.0,2.0,0,0.449,728.0,0.0,17
1078052,8624958043,140.0,156.0,-5.0,0,0.456,728.0,0.0,17
1078053,8624966045,138.0,151.0,-11.0,0,0.452,728.0,0.0,17
1078054,8624974046,132.0,147.0,-16.0,0,0.445,728.0,0.0,17
1078055,8624982043,127.0,142.0,-22.0,0,0.479,728.0,0.0,17
1078056,8624990043,123.0,137.0,-27.0,0,0.473,728.0,0.0,17
1078057,8624998047,122.0,134.0,-31.0,0,0.464,728.0,0.0,17
1078058,8625006043,120.0,130.0,-35.0,0,0.474,728.0,0.0,17
1078059,8625014043,118.0,127.0,-39.0,0,0.485,728.0,0.0,17
1078060,8625022047,115.0,124.0,-43.0,0,0.496,728.0,0.0,17
1078061,8625030046,112.0,121.0,-46.0,0,0.484,728.0,0.0,17
1078062,8625038044,110.0,119.0,-49.0,0,0.492,728.0,0.0,17
1078063,8625046047,106.0,116.0,-52.0,0,0.5,728.0,0.0,17
1078064,8625054045,104.0,113.0,-54.0,0,0.486,728.0,0.0,17
1078065,8625062043,102.0,110.0,-57.0,0,0.513,728.0,0.0,17
1078066,8625070047,98.0,107.0,-59.0,0,0.499,728.0,0.0,17
1078067,8625078043,95.0,104.0,-62.0,0,0.527,728.0,0.0,17
1078068,8625086043,94.0,102.0,-64.0,0,0.513,728.0,0.0,17
1078069,8625094043,92.0,99.0,-67.0,0,0.54,728.0,0.0,17
1078070,8625102045,92.0,98.0,-69.0,0,0.526,728.0,0.0,17
1078071,8625110045,89.0,96.0,-70.0,0,0.51,728.0,0.0,17
1078072,8625118043,90.0,94.0,-72.0,0,0.533,728.0,0.0,17
1078073,8625126047,87.0,92.0,-73.0,0,0.517,728.0,0.0,17
1078074,8625134043,88.0,91.0,-75.0,0,0.541,728.0,0.0,17
1078075,8625142045,85.0,90.0,-76.0,0,0.525,728.0,0.0,17
1078076,8625150044,90.0,90.0,-76.0,1,0.507,728.0,0.0,17
1078077,8625158045,90.0,90.0,-77.0,0,0.527,728.0,0.0,17
1078078,8625166043,87.0,89.0,-77.0,1,0.509,728.0,0.0,17
1078079,8625174046,92.0,90.0,-77.0,0,0.509,728.0,0.0,17
1078080,8625182047,92.0,90.0,-77.0,0,0.509,728.0,0.0,17
1078081,8625190045,92.0,91.0,-76.0,0,0.525,728.0,0.0,17
1078082,8625198043,91.0,91.0,-75.0,0,0.522,728.0,0.0,17
1078083,8625206047,92.0,91.0,-75.0,1,0.504,728.0,0.0,17
1078084,8625214043,94.0,92.0,-74.0,0,0.519,728.0,0.0,17
1078085,8625222046,93.0,92.0,-73.0,0,0.517,728.0,0.0,17
1078086,8625230045,91.0,92.0,-73.0,1,0.499,728.0,0.0,17
1078087,8625238043,97.0,93.0,-72.0,0,0.514,728.0,0.0,17
1078088,8625246047,96.0,94.0,-71.0,0,0.512,728.0,0.0,17
1078089,8625254043,103.0,96.0,-69.0,0,0.525,728.0,0.0,17
1078090,8625262043,104.0,98.0,-68.0,0,0.504,728.0,0.0,17
1078091,8625270043,107.0,100.0,-66.0,0,0.517,728.0,0.0,17
1078092,8625278043,108.0,102.0,-64.0,0,0.512,728.0,0.0,17
1078093,8625286043,113.0,105.0,-61.0,0,0.523,728.0,0.0,17
1078094,8625294043,111.0,106.0,-59.0,0,0.499,728.0,0.0,17
1078095,8625302043,111.0,107.0,-57.0,0,0.493,728.0,0.0,17
1078096,8625310043,119.0,110.0,-55.0,0,0.488,728.0,0.0,17
1078097,8625318043,118.0,112.0,-52.0,0,0.499,728.0,0.0,17
1078098,8625326043,123.0,115.0,-50.0,0,0.475,728.0,0.0,17
1078099,8625334043,123.0,117.0,-48.0,0,0.469,728.0,0.0,17
1078100,8625342043,124.0,119.0,-45.0,0,0.481,728.0,0.0,17
1078101,8625350043,121.0,119.0,-43.0,0,0.456,728.0,0.0,17
1078102,8625358043,121.0,120.0,-42.0,0,0.435,728.0,0.0,17
1078103,8625366043,124.0,121.0,-40.0,0,0.448,728.0,0.0,17
1078104,8625374043,131.0,123.0,-38.0,0,0.443,728.0,0.0,17
1078105,8625382043,130.0,125.0,-37.0,0,0.421,728.0,0.0,17
1078106,8625390043,132.0,127.0,-35.0,0,0.435,728.0,0.0,17
1078107,8625398043,136.0,129.0,-33.0,0,0.429,728.0,0.0,17
1078108,8625406043,135.0,130.0,-31.0,0,0.424,728.0,0.0,17
1078109,8625414043,140.0,133.0,-29.0,0,0.419,728.0,0.0,17
1078110,8625422043,134.0,133.0,-27.0,0,0.414,728.0,0.0,17
1078111,8625430043,140.0,135.0,-25.0,0,0.409,728.0,0.0,17
1078112,8625438043,137.0,135.0,-24.0,0,0.387,728.0,0.0,17
1078113,8625446043,140.0,136.0,-23.0,0,0.385,728.0,0.0,17
1078114,8625454043,145.0,138.0,-21.0,0,0.398,728.0,0.0,17
1078115,8625462043,146.0,140.0,-19.0,0,0.393,728.0,0.0,17
1078116,8625470046,149.0,142.0,-17.0,0,0.388,728.0,0.0,17
1078117,8625478047,151.0,144.0,-15.0,0,0.383,728.0,0.0,17
1078118,8625486043,160.0,148.0,-13.0,0,0.378,728.0,0.0,17
1078119,8625494043,170.0,154.0,-10.0,0,0.391,728.0,0.0,17
1078120,8625502043,178.0,159.0,-6.0,0,0.402,728.0,0.0,17
1078121,8625510047,192.0,167.0,-1.0,0,0.412,728.0,0.0,17
1078122,8625518043,206.0,177.0,6.0,0,0.469,728.0,0.0,17
1078123,8625526047,227.0,189.0,14.0,0,0.507,728.0,0.0,17
1078124,8625534043,243.0,202.0,23.0,0,0.548,728.0,0.0,17
1078125,8625542043,259.0,216.0,33.0,0,0.59,728.0,0.0,17
1078126,8625550043,275.0,230.0,45.0,0,0.647,728.0,0.0,17
1078127,8625558043,291.0,245.0,57.0,0,0.681,728.0,0.0,17
1078128,8625566043,306.0,260.0,70.0,0,0.726,728.0,0.0,17
1078129,8625574043,316.0,273.0,83.0,0,0.759,728.0,0.0,17
1078130,8625582043,325.0,286.0,95.0,0,0.778,728.0,0.0,17
1078131,8625590043,330.0,297.0,107.0,0,0.803,728.0,0.0,17
1078132,8625598043,335.0,306.0,118.0,0,0.813,728.0,0.0,17
1078133,8625606043,337.0,313.0,127.0,0,0.8,728.0,0.0,17
1078134,8625614047,337.0,319.0,135.0,0,0.796,728.0,0.0,17
1078135,8625622046,336.0,323.0,142.0,0,0.789,728.0,0.0,17
1078136,8625630043,330.0,325.0,147.0,0,0.757,728.0,0.0,17
1078137,8625638043,324.0,325.0,150.0,0,0.721,728.0,0.0,17
1078138,8625646043,319.0,323.0,152.0,0,0.703,728.0,0.0,17
1078139,8625654043,312.0,321.0,152.0,1,0.665,728.0,0.0,17
1078140,8625662043,300.0,316.0,150.0,0,0.7,728.0,0.0,17
1078141,8625670047,289.0,309.0,147.0,0,0.716,728.0,0.0,17
1078142,8625678043,277.0,301.0,142.0,0,0.75,728.0,0.0,17
1078143,8625686043,269.0,294.0,136.0,0,0.761,728.0,0.0,17
1078144,8625694046,257.0,285.0,129.0,0,0.769,728.0,0.0,17
1078145,8625702046,242.0,274.0,121.0,0,0.773,728.0,0.0,17
1078146,8625710043,228.0,263.0,112.0,0,0.772,728.0,0.0,17
1078147,8625718043,216.0,252.0,102.0,0,0.765,728.0,0.0,17
1078148,8625726047,202.0,240.0,91.0,0,0.753,728.0,0.0,17
1078149,8625734046,191.0,228.0,80.0,0,0.726,728.0,0.0,17
1078150,8625742047,183.0,217.0,69.0,0,0.697,728.0,0.0,17
1078151,8625750046,175.0,207.0,58.0,0,0.667,728.0,0.0,17
1078152,8625758043,166.0,197.0,47.0,0,0.636,728.0,0.0,17
1078153,8625766047,160.0,188.0,37.0,0,0.595,728.0,0.0,17
1078154,8625774043,155.0,180.0,28.0,0,0.556,728.0,0.0,17
1078155,8625782047,149.0,172.0,19.0,0,0.532,728.0,0.0,17
1078156,8625790043,149.0,167.0,11.0,0,0.495,728.0,0.0,17
1078157,8625798043,146.0,162.0,3.0,0,0.476,728.0,0.0,17
1078158,8625806044,144.0,157.0,-3.0,0,0.436,728.0,0.0,17
1078159,8625814045,143.0,154.0,-8.0,0,0.428,728.0,0.0,17
1078160,8625822043,140.0,151.0,-13.0,0,0.44,728.0,0.0,17
1078161,8625830047,139.0,148.0,-17.0,0,0.431,728.0,0.0,17
1078162,8625838046,141.0,146.0,-21.0,0,0.441,728.0,0.0,17
1078163,8625846046,135.0,143.0,-24.0,0,0.429,728.0,0.0,17
1078164,8625854043,134.0,141.0,-27.0,0,0.437,728.0,0.0,17
1078165,8625862043,132.0,139.0,-29.0,0,0.423,728.0,0.0,17
1078166,8625870043,132.0,137.0,-32.0,0,0.451,728.0,0.0,17
1078167,8625878043,132.0,136.0,-33.0,0,0.415,728.0,0.0,17
1078168,8625886043,124.0,133.0,-36.0,0,0.463,728.0,0.0,17
1078169,8625894043,125.0,131.0,-38.0,0,0.449,728.0,0.0,17
1078170,8625902043,123.0,129.0,-39.0,0,0.432,728.0,0.0,17
1078171,8625910043,117.0,126.0,-42.0,0,0.481,728.0,0.0,17
1078172,8625918046,116.0,124.0,-44.0,0,0.467,728.0,0.0,17
1078173,8625926043,111.0,121.0,-46.0,0,0.472,728.0,0.0,17
1078174,8625934043,112.0,119.0,-48.0,0,0.478,728.0,0.0,17
1078175,8625942043,108.0,116.0,-50.0,0,0.484,728.0,0.0,17
1078176,8625950043,108.0,114.0,-52.0,0,0.49,728.0,0.0,17
1078177,8625958043,105.0,112.0,-54.0,0,0.496,728.0,0.0,17
1078178,8625966043,103.0,110.0,-56.0,0,0.502,728.0,0.0,17
1078179,8625974043,104.0,108.0,-58.0,0,0.508,728.0,0.0,17
1078180,8625982043,104.0,107.0,-59.0,0,0.491,728.0,0.0,17
1078181,8625990043,103.0,106.0,-60.0,0,0.495,728.0,0.0,17
1078182,8625998043,104.0,106.0,-61.0,0,0.498,728.0,0.0,17
1078183,8626006043,102.0,105.0,-62.0,0,0.501,728.0,0.0,17
1078184,8626014043,104.0,105.0,-62.0,1,0.482,728.0,0.0,17
1078185,8626022043,104.0,104.0,-62.0,0,0.483,728.0,0.0,17
1078186,8626030043,106.0,105.0,-62.0,0,0.483,728.0,0.0,17
1078187,8626038043,107.0,105.0,-62.0,0,0.483,728.0,0.0,17
1078188,8626046043,107.0,106.0,-62.0,0,0.483,728.0,0.0,17
1078189,8626054047,109.0,107.0,-61.0,0,0.499,728.0,0.0,17
1078190,8626062045,109.0,107.0,-60.0,0,0.497,728.0,0.0,17
1078191,8626070043,111.0,108.0,-59.0,0,0.494,728.0,0.0,17
1078192,8626078043,108.0,108.0,-59.0,1,0.476,728.0,0.0,17
1078193,8626086043,107.0,108.0,-58.0,0,0.491,728.0,0.0,17
1078194,8626094043,112.0,109.0,-57.0,0,0.489,728.0,0.0,17
1078195,8626102043,113.0,110.0,-56.0,0,0.486,728.0,0.0,17
1078196,8626110043,115.0,111.0,-55.0,0,0.483,728.0,0.0,17
1078197,8626118043,115.0,112.0,-54.0,0,0.481,728.0,0.0,17
1078198,8626126044,117.0,113.0,-53.0,0,0.478,728.0,0.0,17
1078199,8626134043,121.0,115.0,-51.0,0,0.492,728.0,0.0,17
1078200,8626142043,121.0,117.0,-49.0,0,0.486,728.0,0.0,17
1078201,8626150043,124.0,118.0,-48.0,0,0.464,728.0,0.0,17
1078202,8626158043,121.0,119.0,-46.0,0,0.478,728.0,0.0,17
1078203,8626166046,123.0,120.0,-45.0,0,0.455,728.0,0.0,17
1078204,8626174043,126.0,121.0,-43.0,0,0.469,728.0,0.0,17
1078205,8626182043,126.0,123.0,-42.0,0,0.447,728.0,0.0,17
1078206,8626190046,130.0,124.0,-40.0,0,0.461,728.0,0.0,17
1078207,8626198044,135.0,127.0,-38.0,0,0.455,728.0,0.0,17
1078208,8626206046,127.0,127.0,-37.0,0,0.433,728.0,0.0,17
1078209,8626214045,127.0,127.0,-36.0,0,0.43,728.0,0.0,17
1078210,8626222043,133.0,128.0,-34.0,0,0.444,728.0,0.0,17
1078211,8626230043,135.0,130.0,-33.0,0,0.421,728.0,0.0,17
1078212,8626238044,133.0,131.0,-32.0,0,0.418,728.0,0.0,17
1078213,8626246044,135.0,132.0,-30.0,0,0.432,728.0,0.0,17
1078214,8626254047,139.0,134.0,-29.0,0,0.41,728.0,0.0,17
1078215,8626262044,137.0,134.0,-28.0,0,0.407,728.0,0.0,17
1078216,8626270045,140.0,136.0,-26.0,0,0.421,728.0,0.0,17
1078217,8626278047,144.0,138.0,-25.0,0,0.399,728.0,0.0,17
1078218,8626286047,151.0,141.0,-22.0,0,0.43,728.0,0.0,17
1078219,8626294045,156.0,145.0,-20.0,0,0.405,728.0,0.0,17
1078220,8626302045,163.0,149.0,-17.0,0,0.417,728.0,0.0,17
1078221,8626310043,178.0,156.0,-13.0,0,0.427,728.0,0.0,17
1078222,8626318043,191.0,165.0,-7.0,0,0.451,728.0,0.0,17
1078223,8626326043,205.0,174.0,0.0,0,0.453,728.0,0.0,17
1078224,8626334043,222.0,186.0,8.0,0,0.481,728.0,0.0,17
1078225,8626342045,239.0,199.0,17.0,0,0.519,728.0,0.0,17
1078226,8626350043,255.0,212.0,27.0,0,0.559,728.0,0.0,17
1078227,8626358043,269.0,226.0,39.0,0,0.616,728.0,0.0,17
1078228,8626366047,285.0,240.0,51.0,0,0.649,728.0,0.0,17
1078229,8626374047,300.0,255.0,63.0,0,0.681,728.0,0.0,17
1078230,8626382044,309.0,268.0,75.0,0,0.713,728.0,0.0,17
1078231,8626390045,318.0,280.0,88.0,0,0.756,728.0,0.0,17
1078232,8626398046,324.0,291.0,99.0,0,0.76,728.0,0.0,17
1078233,8626406046,331.0,301.0,110.0,0,0.783,728.0,0.0,17
1078234,8626414044,334.0,309.0,120.0,0,0.79,728.0,0.0,17
1078235,8626422043,333.0,315.0,128.0,0,0.774,728.0,0.0,17
1078236,8626430044,332.0,319.0,135.0,0,0.769,728.0,0.0,17
1078237,8626438045,328.0,321.0,140.0,0,0.738,728.0,0.0,17
1078238,8626446044,321.0,321.0,143.0,0,0.702,728.0,0.0,17
1078239,8626454044,316.0,320.0,145.0,0,0.685,728.0,0.0,17
1078240,8626462044,310.0,317.0,146.0,0,0.667,728.0,0.0,17
1078241,8626470045,303.0,314.0,145.0,1,0.666,728.0,0.0,17
1078242,8626478043,292.0,309.0,142.0,0,0.703,728.0,0.0,17
1078243,8626486043,281.0,302.0,138.0,0,0.719,728.0,0.0,17
1078244,8626494044,271.0,294.0,133.0,0,0.732,728.0,0.0,17
1078245,8626502044,260.0,286.0,127.0,0,0.743,728.0,0.0,17
1078246,8626510043,245.0,276.0,119.0,0,0.767,728.0,0.0,17
1078247,8626518045,236.0,266.0,111.0,0,0.752,728.0,0.0,17
1078248,8626526043,223.0,256.0,102.0,0,0.751,728.0,0.0,17
1078249,8626534044,213.0,245.0,92.0,0,0.743,728.0,0.0,17
1078250,8626542044,199.0,234.0,82.0,0,0.72,728.0,0.0,17
1078251,8626550043,189.0,223.0,71.0,0,0.705,728.0,0.0,17
1078252,8626558046,179.0,213.0,61.0,0,0.665,728.0,0.0,17
1078253,8626566043,173.0,203.0,50.0,0,0.648,728.0,0.0,17
1078254,8626574045,164.0,194.0,40.0,0,0.607,728.0,0.0,17
1078255,8626582043,156.0,184.0,30.0,0,0.579,728.0,0.0,17
1078256,8626590045,152.0,177.0,21.0,0,0.54,728.0,0.0,17
1078257,8626598043,147.0,169.0,13.0,0,0.503,728.0,0.0,17
1078258,8626606045,145.0,163.0,5.0,0,0.483,728.0,0.0,17
1078259,8626614043,142.0,158.0,-2.0,0,0.455,728.0,0.0,17
1078260,8626622043,133.0,152.0,-9.0,0,0.473,728.0,0.0,17
1078261,8626630046,134.0,148.0,-15.0,0,0.47,728.0,0.0,17
1078262,8626638043,135.0,145.0,-20.0,0,0.464,728.0,0.0,17
1078263,8626646046,135.0,142.0,-24.0,0,0.454,728.0,0.0,17
1078264,8626654044,133.0,140.0,-28.0,0,0.466,728.0,0.0,17
1078265,8626662047,130.0,138.0,-31.0,0,0.453,728.0,0.0,17
1078266,8626670045,131.0,136.0,-34.0,0,0.462,728.0,0.0,17
1078267,8626678045,127.0,134.0,-36.0,0,0.446,728.0,0.0,17
1078268,8626686044,121.0,131.0,-39.0,0,0.476,728.0,0.0,17
1078269,8626694044,123.0,129.0,-41.0,0,0.461,728.0,0.0,17
1078270,8626702043,121.0,127.0,-43.0,0,0.467,728.0,0.0,17
1078271,8626710046,111.0,123.0,-46.0,0,0.497,728.0,0.0,17
1078272,8626718043,113.0,121.0,-48.0,0,0.481,728.0,0.0,17
1078273,8626726043,112.0,119.0,-50.0,0,0.487,728.0,0.0,17
1078274,8626734043,108.0,116.0,-53.0,0,0.517,728.0,0.0,17
1078275,8626742043,100.0,112.0,-55.0,0,0.502,728.0,0.0,17
1078276,8626750043,100.0,109.0,-58.0,0,0.532,728.0,0.0,17
1078277,8626758045,100.0,107.0,-60.0,0,0.516,728.0,0.0,17
1078278,8626766043,98.0,105.0,-62.0,0,0.522,728.0,0.0,17
1078279,8626774046,97.0,103.0,-64.0,0,0.528,728.0,0.0,17
1078280,8626782043,92.0,100.0,-66.0,0,0.534,728.0,0.0,17
1078281,8626790045,99.0,100.0,-67.0,0,0.516,728.0,0.0,17
1078282,8626798043,94.0,99.0,-69.0,0,0.542,728.0,0.0,17
1078283,8626806046,97.0,98.0,-70.0,0,0.524,728.0,0.0,17
1078284,8626814047,102.0,99.0,-70.0,1,0.505,728.0,0.0,17
1078285,8626822043,96.0,98.0,-70.0,0,0.505,728.0,0.0,17
1078286,8626830045,99.0,98.0,-70.0,0,0.506,728.0,0.0,17
1078287,8626838046,101.0,99.0,-70.0,0,0.506,728.0,0.0,17
1078288,8626846045,100.0,99.0,-69.0,0,0.523,728.0,0.0,17
1078289,8626854045,101.0,100.0,-69.0,1,0.503,728.0,0.0,17
1078290,8626862046,102.0,100.0,-68.0,0,0.52,728.0,0.0,17
1078291,8626870043,101.0,100.0,-67.0,0,0.518,728.0,0.0,17
1078292,8626878045,104.0,101.0,-67.0,1,0.499,728.0,0.0,17
1078293,8626886043,104.0,102.0,-66.0,0,0.515,728.0,0.0,17
1078294,8626894044,110.0,104.0,-64.0,0,0.53,728.0,0.0,17
1078295,8626902043,112.0,106.0,-63.0,0,0.508,728.0,0.0,17
1078296,8626910046,112.0,107.0,-61.0,0,0.523,728.0,0.0,17
1078297,8626918046,116.0,109.0,-59.0,0,0.517,728.0,0.0,17
1078298,8626926046,118.0,112.0,-57.0,0,0.512,728.0,0.0,17
1078299,8626934045,119.0,113.0,-55.0,0,0.506,728.0,0.0,17
1078300,8626942043,115.0,114.0,-53.0,0,0.501,728.0,0.0,17
1078301,8626950047,117.0,115.0,-52.0,0,0.478,728.0,0.0,17
1078302,8626958047,118.0,115.0,-50.0,0,0.492,728.0,0.0,17
1078303,8626966046,118.0,116.0,-49.0,0,0.469,728.0,0.0,17
1078304,8626974044,124.0,118.0,-48.0,0,0.467,728.0,0.0,17
1078305,8626982046,124.0,119.0,-46.0,0,0.482,728.0,0.0,17
1078306,8626990047,125.0,121.0,-44.0,0,0.476,728.0,0.0,17
1078307,8626998047,127.0,122.0,-43.0,0,0.453,728.0,0.0,17
1078308,8627006043,132.0,125.0,-41.0,0,0.467,728.0,0.0,17
1078309,8627014044,127.0,125.0,-39.0,0,0.462,728.0,0.0,17
1078310,8627022044,131.0,127.0,-38.0,0,0.439,728.0,0.0,17
1078311,8627030043,132.0,128.0,-36.0,0,0.453,728.0,0.0,17
1078312,8627038044,137.0,130.0,-34.0,0,0.448,728.0,0.0,17
1078313,8627046043,133.0,131.0,-33.0,0,0.424,728.0,0.0,17
1078314,8627054043,135.0,132.0,-31.0,0,0.439,728.0,0.0,17
1078315,8627062046,136.0,133.0,-30.0,0,0.416,728.0,0.0,17
1078316,8627070046,139.0,134.0,-28.0,0,0.43,728.0,0.0,17
1078317,8627078043,138.0,135.0,-27.0,0,0.407,728.0,0.0,17
1078318,8627086043,143.0,137.0,-25.0,0,0.422,728.0,0.0,17
1078319,8627094047,144.0,139.0,-24.0,0,0.399,728.0,0.0,17
1078320,8627102043,149.0,141.0,-22.0,0,0.414,728.0,0.0,17
1078321,8627110046,152.0,144.0,-20.0,0,0.408,728.0,0.0,17
1078322,8627118047,166.0,149.0,-17.0,0,0.421,728.0,0.0,17
1078323,8627126046,174.0,155.0,-13.0,0,0.431,728.0,0.0,17
1078324,8627134043,186.0,163.0,-8.0,0,0.438,728.0,0.0,17
1078325,8627142046,202.0,172.0,-2.0,0,0.443,728.0,0.0,17
1078326,8627150045,219.0,184.0,6.0,0,0.484,728.0,0.0,17
1078327,8627158045,233.0,196.0,15.0,0,0.524,728.0,0.0,17
1078328,8627166047,249.0,209.0,25.0,0,0.565,728.0,0.0,17
1078329,8627174045,272.0,224.0,36.0,0,0.609,728.0,0.0,17
1078330,8627182046,287.0,239.0,48.0,0,0.655,728.0,0.0,17
1078331,8627190045,300.0,254.0,61.0,0,0.701,728.0,0.0,17
1078332,8627198043,313.0,268.0,74.0,0,0.736,728.0,0.0,17
1078333,8627206046,324.0,282.0,87.0,0,0.768,728.0,0.0,17
1078334,8627214046,338.0,295.0,100.0,0,0.797,728.0,0.0,17
1078335,8627222043,338.0,306.0,112.0,0,0.811,728.0,0.0,17
1078336,8627230045,346.0,315.0,123.0,0,0.818,728.0,0.0,17
1078337,8627238045,348.0,323.0,133.0,0,0.82,728.0,0.0,17
1078338,8627246043,348.0,329.0,141.0,0,0.799,728.0,0.0,17
1078339,8627254043,347.0,334.0,148.0,0,0.79,728.0,0.0,17
1078340,8627262043,339.0,335.0,153.0,0,0.758,728.0,0.0,17
1078341,8627270046,337.0,335.0,156.0,0,0.72,728.0,0.0,17
1078342,8627278044,328.0,334.0,158.0,0,0.701,728.0,0.0,17
1078343,8627286044,319.0,330.0,158.0,1,0.662,728.0,0.0,17
1078344,8627294044,308.0,325.0,156.0,0,0.697,728.0,0.0,17
1078345,8627302043,296.0,318.0,152.0,0,0.733,728.0,0.0,17
1078346,8627310043,286.0,310.0,147.0,0,0.747,728.0,0.0,17
1078347,8627318043,273.0,301.0,141.0,0,0.759,728.0,0.0,17
1078348,8627326045,261.0,291.0,133.0,0,0.783,728.0,0.0,17
1078349,8627334043,252.0,282.0,125.0,0,0.77,728.0,0.0,17
1078350,8627342045,240.0,272.0,116.0,0,0.769,728.0,0.0,17
1078351,8627350043,226.0,261.0,106.0,0,0.763,728.0,0.0,17
1078352,8627358044,216.0,250.0,96.0,0,0.741,728.0,0.0,17
1078353,8627366043,204.0,239.0,85.0,0,0.728,728.0,0.0,17
1078354,8627374043,195.0,228.0,75.0,0,0.69,728.0,0.0,17
1078355,8627382046,181.0,217.0,64.0,0,0.673,728.0,0.0,17
1078356,8627390045,174.0,206.0,53.0,0,0.643,728.0,0.0,17
1078357,8627398043,166.0,197.0,42.0,0,0.612,728.0,0.0,17
1078358,8627406046,160.0,188.0,32.0,0,0.571,728.0,0.0,17
1078359,8627414043,158.0,180.0,23.0,0,0.532,728.0,0.0,17
1078360,8627422044,148.0,173.0,14.0,0,0.509,728.0,0.0,17
1078361,8627430043,150.0,167.0,6.0,0,0.473,728.0,0.0,17
1078362,8627438045,146.0,162.0,-1.0,0,0.458,728.0,0.0,17
1078363,8627446043,142.0,157.0,-7.0,0,0.455,728.0,0.0,17
1078364,8627454045,138.0,153.0,-13.0,0,0.471,728.0,0.0,17
1078365,8627462046,136.0,149.0,-18.0,0,0.465,728.0,0.0,17
1078366,8627470044,136.0,145.0,-23.0,0,0.479,728.0,0.0,17
1078367,8627478043,127.0,141.0,-27.0,0,0.47,728.0,0.0,17
1078368,8627486043,124.0,137.0,-31.0,0,0.482,728.0,0.0,17
1078369,8627494046,124.0,134.0,-35.0,0,0.493,728.0,0.0,17
1078370,8627502045,120.0,130.0,-39.0,0,0.505,728.0,0.0,17
1078371,8627510046,119.0,128.0,-42.0,0,0.493,728.0,0.0,17
1078372,8627518045,120.0,126.0,-45.0,0,0.501,728.0,0.0,17
1078373,8627526043,116.0,123.0,-48.0,0,0.51,728.0,0.0,17
1078374,8627534043,115.0,121.0,-50.0,0,0.494,728.0,0.0,17
1078375,8627542047,112.0,119.0,-52.0,0,0.5,728.0,0.0,17
1078376,8627550043,111.0,117.0,-54.0,0,0.505,728.0,0.0,17
1078377,8627558043,108.0,115.0,-56.0,0,0.511,728.0,0.0,17
1078378,8627566043,106.0,113.0,-58.0,0,0.517,728.0,0.0,17
1078379,8627574043,104.0,111.0,-60.0,0,0.522,728.0,0.0,17
1078380,8627582043,96.0,107.0,-62.0,0,0.527,728.0,0.0,17
1078381,8627590043,95.0,104.0,-64.0,0,0.533,728.0,0.0,17
1078382,8627598044,96.0,102.0,-66.0,0,0.538,728.0,0.0,17
1078383,8627606044,95.0,100.0,-68.0,0,0.544,728.0,0.0,17
1078384,8627614044,93.0,99.0,-70.0,0,0.549,728.0,0.0,17
1078385,8627622043,96.0,98.0,-71.0,0,0.531,728.0,0.0,17
1078386,8627630045,96.0,98.0,-72.0,0,0.533,728.0,0.0,17
1078387,8627638043,95.0,97.0,-73.0,0,0.536,728.0,0.0,17
1078388,8627646043,90.0,95.0,-73.0,1,0.516,728.0,0.0,17
1078389,8627654043,92.0,94.0,-74.0,0,0.538,728.0,0.0,17
1078390,8627662046,95.0,95.0,-74.0,1,0.519,728.0,0.0,17
1078391,8627670043,92.0,94.0,-75.0,0,0.541,728.0,0.0,17
1078392,8627678043,96.0,94.0,-74.0,1,0.538,728.0,0.0,17
1078393,8627686046,101.0,96.0,-74.0,1,0.519,728.0,0.0,17
1078394,8627694043,103.0,98.0,-73.0,0,0.535,728.0,0.0,17
1078395,8627702043,105.0,99.0,-71.0,0,0.55,728.0,0.0,17
1078396,8627710043,101.0,100.0,-70.0,0,0.527,728.0,0.0,17
1078397,8627718043,108.0,102.0,-68.0,0,0.542,728.0,0.0,17
1078398,8627726043,109.0,104.0,-67.0,0,0.519,728.0,0.0,17
1078399,8627734043,110.0,105.0,-65.0,0,0.534,728.0,0.0,17
1078400,8627742043,112.0,107.0,-63.0,0,0.529,728.0,0.0,17
1078401,8627750043,112.0,108.0,-61.0,0,0.523,728.0,0.0,17
1078402,8627758043,112.0,109.0,-60.0,0,0.5,728.0,0.0,17
1078403,8627766043,116.0,111.0,-58.0,0,0.515,728.0,0.0,17
1078404,8627774043,117.0,112.0,-56.0,0,0.51,728.0,0.0,17
1078405,8627782043,121.0,114.0,-54.0,0,0.504,728.0,0.0,17
1078406,8627790043,120.0,116.0,-52.0,0,0.498,728.0,0.0,17
1078407,8627798043,123.0,117.0,-50.0,0,0.493,728.0,0.0,17
1078408,8627806043,119.0,118.0,-49.0,0,0.47,728.0,0.0,17
1078409,8627814043,121.0,119.0,-47.0,0,0.485,728.0,0.0,17
1078410,8627822043,123.0,120.0,-46.0,0,0.461,728.0,0.0,17
1078411,8627830043,123.0,120.0,-44.0,0,0.476,728.0,0.0,17
1078412,8627838047,125.0,122.0,-43.0,0,0.453,728.0,0.0,17
1078413,8627846043,126.0,123.0,-42.0,0,0.45,728.0,0.0,17
1078414,8627854043,127.0,124.0,-40.0,0,0.465,728.0,0.0,17
1078415,8627862043,127.0,125.0,-39.0,0,0.442,728.0,0.0,17
1078416,8627870043,131.0,126.0,-38.0,0,0.439,728.0,0.0,17
1078417,8627878047,132.0,128.0,-36.0,0,0.454,728.0,0.0,17
1078418,8627886043,132.0,129.0,-35.0,0,0.431,728.0,0.0,17
1078419,8627894043,140.0,131.0,-33.0,0,0.445,728.0,0.0,17
1078420,8627902043,137.0,133.0,-31.0,0,0.44,728.0,0.0,17
1078421,8627910043,146.0,136.0,-29.0,0,0.434,728.0,0.0,17
1078422,8627918043,156.0,141.0,-26.0,0,0.446,728.0,0.0,17
1078423,8627926043,164.0,146.0,-22.0,0,0.456,728.0,0.0,17
1078424,8627934043,177.0,154.0,-17.0,0,0.463,728.0,0.0,17
1078425,8627942043,192.0,163.0,-11.0,0,0.467,728.0,0.0,17
1078426,8627950043,208.0,174.0,-4.0,0,0.467,728.0,0.0,17
1078427,8627958043,224.0,186.0,5.0,0,0.498,728.0,0.0,17
1078428,8627966046,242.0,200.0,15.0,0,0.538,728.0,0.0,17
1078429,8627974043,254.0,213.0,26.0,0,0.581,728.0,0.0,17
1078430,8627982043,275.0,228.0,38.0,0,0.627,728.0,0.0,17
1078431,8627990044,284.0,242.0,50.0,0,0.661,728.0,0.0,17
1078432,8627998043,299.0,255.0,62.0,0,0.695,728.0,0.0,17
1078433,8628006043,308.0,268.0,75.0,0,0.74,728.0,0.0,17
1078434,8628014043,319.0,281.0,87.0,0,0.76,728.0,0.0,17
1078435,8628022043,322.0,291.0,98.0,0,0.773,728.0,0.0,17
1078436,8628030043,327.0,299.0,109.0,0,0.795,728.0,0.0,17
1078437,8628038044,328.0,306.0,118.0,0,0.783,728.0,0.0,17
1078438,8628046043,324.0,311.0,125.0,0,0.76,728.0,0.0,17
1078439,8628054047,324.0,314.0,131.0,0,0.75,728.0,0.0,17
1078440,8628062043,321.0,316.0,136.0,0,0.737,728.0,0.0,17
1078441,8628070043,316.0,316.0,139.0,0,0.7,728.0,0.0,17
1078442,8628078043,304.0,313.0,140.0,0,0.661,728.0,0.0,17
1078443,8628086043,303.0,310.0,139.0,1,0.658,728.0,0.0,17
1078444,8628094043,296.0,307.0,138.0,0,0.655,728.0,0.0,17
1078445,8628102047,282.0,301.0,135.0,0,0.687,728.0,0.0,17
1078446,8628110043,271.0,294.0,131.0,0,0.7,728.0,0.0,17
1078447,8628118047,263.0,286.0,125.0,0,0.728,728.0,0.0,17
1078448,8628126044,253.0,278.0,119.0,0,0.716,728.0,0.0,17
1078449,8628134047,242.0,269.0,111.0,0,0.736,728.0,0.0,17
1078450,8628142045,229.0,260.0,103.0,0,0.718,728.0,0.0,17
1078451,8628150044,220.0,250.0,94.0,0,0.713,728.0,0.0,17
1078452,8628158043,208.0,240.0,85.0,0,0.692,728.0,0.0,17
1078453,8628166043,197.0,229.0,76.0,0,0.669,728.0,0.0,17
1078454,8628174043,188.0,219.0,66.0,0,0.657,728.0,0.0,17
1078455,8628182043,177.0,209.0,56.0,0,0.63,728.0,0.0,17
1078456,8628190043,174.0,201.0,46.0,0,0.602,728.0,0.0,17
1078457,8628198046,167.0,192.0,37.0,0,0.563,728.0,0.0,17
1078458,8628206047,166.0,186.0,28.0,0,0.539,728.0,0.0,17
1078459,8628214045,159.0,179.0,20.0,0,0.503,728.0,0.0,17
1078460,8628222043,155.0,174.0,13.0,0,0.468,728.0,0.0,17
1078461,8628230046,151.0,168.0,6.0,0,0.451,728.0,0.0,17
1078462,8628238046,148.0,163.0,0.0,0,0.443,728.0,0.0,17
1078463,8628246043,144.0,159.0,-6.0,0,0.457,728.0,0.0,17
1078464,8628254043,143.0,155.0,-11.0,0,0.45,728.0,0.0,17
1078465,8628262045,136.0,150.0,-16.0,0,0.464,728.0,0.0,17
1078466,8628270046,137.0,147.0,-20.0,0,0.454,728.0,0.0,17
1078467,8628278044,135.0,144.0,-24.0,0,0.465,728.0,0.0,17
1078468,8628286043,132.0,141.0,-27.0,0,0.453,728.0,0.0,17
1078469,8628294043,133.0,139.0,-30.0,0,0.461,728.0,0.0,17
1078470,8628302044,124.0,136.0,-34.0,0,0.494,728.0,0.0,17
1078471,8628310043,124.0,133.0,-37.0,0,0.481,728.0,0.0,17
1078472,8628318043,120.0,130.0,-39.0,0,0.466,728.0,0.0,17
1078473,8628326043,120.0,127.0,-42.0,0,0.496,728.0,0.0,17
1078474,8628334043,116.0,125.0,-45.0,0,0.504,728.0,0.0,17
1078475,8628342047,116.0,122.0,-47.0,0,0.489,728.0,0.0,17
1078476,8628350043,114.0,120.0,-49.0,0,0.494,728.0,0.0,17
1078477,8628358043,111.0,118.0,-51.0,0,0.5,728.0,0.0,17
1078478,8628366043,107.0,115.0,-53.0,0,0.505,728.0,0.0,17
1078479,8628374043,109.0,114.0,-55.0,0,0.511,728.0,0.0,17
1078480,8628382043,108.0,112.0,-57.0,0,0.516,728.0,0.0,17
1078481,8628390043,104.0,110.0,-58.0,0,0.498,728.0,0.0,17
1078482,8628398043,105.0,109.0,-60.0,0,0.524,728.0,0.0,17
1078483,8628406043,103.0,108.0,-61.0,0,0.506,728.0,0.0,17
1078484,8628414043,105.0,107.0,-62.0,0,0.508,728.0,0.0,17
1078485,8628422043,104.0,106.0,-63.0,0,0.511,728.0,0.0,17
1078486,8628430043,102.0,105.0,-64.0,0,0.513,728.0,0.0,17
1078487,8628438043,104.0,105.0,-64.0,1,0.493,728.0,0.0,17
1078488,8628446046,100.0,104.0,-65.0,0,0.515,728.0,0.0,17
1078489,8628454044,100.0,103.0,-65.0,1,0.495,728.0,0.0,17
1078490,8628462043,105.0,103.0,-65.0,0,0.494,728.0,0.0,17
1078491,8628470043,102.0,103.0,-65.0,0,0.494,728.0,0.0,17
1078492,8628478043,101.0,103.0,-65.0,0,0.494,728.0,0.0,17
1078493,8628486044,105.0,103.0,-65.0,0,0.493,728.0,0.0,17
1078494,8628494043,109.0,105.0,-65.0,0,0.493,728.0,0.0,17
1078495,8628502043,110.0,106.0,-64.0,0,0.51,728.0,0.0,17
1078496,8628510043,112.0,107.0,-62.0,0,0.524,728.0,0.0,17
1078497,8628518044,112.0,108.0,-61.0,0,0.501,728.0,0.0,17
1078498,8628526043,116.0,110.0,-59.0,0,0.515,728.0,0.0,17
1078499,8628534043,113.0,111.0,-58.0,0,0.492,728.0,0.0,17
1078500,8628542043,116.0,112.0,-56.0,0,0.507,728.0,0.0,17
1078501,8628550043,119.0,114.0,-55.0,0,0.483,728.0,0.0,17
1078502,8628558043,116.0,114.0,-53.0,0,0.498,728.0,0.0,17
1078503,8628566043,116.0,115.0,-52.0,0,0.474,728.0,0.0,17
1078504,8628574043,119.0,116.0,-51.0,0,0.471,728.0,0.0,17
1078505,8628582043,118.0,116.0,-50.0,0,0.468,728.0,0.0,17
1078506,8628590043,124.0,118.0,-48.0,0,0.483,728.0,0.0,17
1078507,8628598046,119.0,118.0,-47.0,0,0.46,728.0,0.0,17
1078508,8628606047,124.0,120.0,-46.0,0,0.457,728.0,0.0,17
1078509,8628614044,124.0,121.0,-45.0,0,0.454,728.0,0.0,17
1078510,8628622043,126.0,122.0,-43.0,0,0.469,728.0,0.0,17
1078511,8628630043,126.0,123.0,-42.0,0,0.446,728.0,0.0,17
1078512,8628638043,122.0,123.0,-41.0,0,0.443,728.0,0.0,17
1078513,8628646043,127.0,124.0,-40.0,0,0.44,728.0,0.0,17
1078514,8628654043,131.0,126.0,-39.0,0,0.437,728.0,0.0,17
1078515,8628662047,127.0,126.0,-38.0,0,0.435,728.0,0.0,17
1078516,8628670043,140.0,129.0,-36.0,0,0.45,728.0,0.0,17
1078517,8628678043,147.0,134.0,-33.0,0,0.462,728.0,0.0,17
1078518,8628686043,149.0,137.0,-30.0,0,0.454,728.0,0.0,17
1078519,8628694043,161.0,143.0,-26.0,0,0.464,728.0,0.0,17
1078520,8628702043,172.0,150.0,-22.0,0,0.452,728.0,0.0,17
1078521,8628710043,188.0,159.0,-16.0,0,0.477,728.0,0.0,17
1078522,8628718043,202.0,170.0,-9.0,0,0.477,728.0,0.0,17
1078523,8628726047,217.0,181.0,0.0,0,0.492,728.0,0.0,17
1078524,8628734046,236.0,194.0,10.0,0,0.532,728.0,0.0,17
1078525,8628742043,251.0,208.0,20.0,0,0.559,728.0,0.0,17
1078526,8628750043,266.0,222.0,32.0,0,0.617,728.0,0.0,17
1078527,8628758043,279.0,236.0,44.0,0,0.652,728.0,0.0,17
1078528,8628766043,292.0,250.0,56.0,0,0.686,728.0,0.0,17
1078529,8628774045,300.0,262.0,69.0,0,0.732,728.0,0.0,17
1078530,8628782043,310.0,273.0,80.0,0,0.739,728.0,0.0,17
1078531,8628790043,319.0,284.0,92.0,0,0.778,728.0,0.0,17
1078532,8628798043,319.0,293.0,102.0,0,0.775,728.0,0.0,17
1078533,8628806043,323.0,300.0,111.0,0,0.777,728.0,0.0,17
1078534,8628814045,325.0,306.0,119.0,0,0.774,728.0,0.0,17
1078535,8628822043,323.0,310.0,126.0,0,0.767,728.0,0.0,17
1078536,8628830043,317.0,312.0,131.0,0,0.735,728.0,0.0,17
1078537,8628838043,311.0,312.0,134.0,0,0.698,728.0,0.0,17
1078538,8628846043,305.0,310.0,135.0,0,0.659,728.0,0.0,17
1078539,8628854043,300.0,308.0,135.0,1,0.639,728.0,0.0,17
1078540,8628862047,291.0,304.0,134.0,0,0.654,728.0,0.0,17
1078541,8628870043,284.0,299.0,132.0,0,0.668,728.0,0.0,17
1078542,8628878047,273.0,293.0,128.0,0,0.7,728.0,0.0,17
1078543,8628886043,258.0,284.0,123.0,0,0.709,728.0,0.0,17
1078544,8628894043,246.0,275.0,116.0,0,0.732,728.0,0.0,17
1078545,8628902043,237.0,266.0,108.0,0,0.731,728.0,0.0,17
1078546,8628910043,225.0,256.0,100.0,0,0.712,728.0,0.0,17
1078547,8628918044,213.0,245.0,91.0,0,0.706,728.0,0.0,17
1078548,8628926045,204.0,235.0,81.0,0,0.694,728.0,0.0,17
1078549,8628934043,199.0,227.0,72.0,0,0.655,728.0,0.0,17
1078550,8628942043,188.0,217.0,63.0,0,0.63,728.0,0.0,17
1078551,8628950043,183.0,209.0,53.0,0,0.617,728.0,0.0,17
1078552,8628958043,172.0,200.0,44.0,0,0.578,728.0,0.0,17
1078553,8628966043,168.0,192.0,36.0,0,0.541,728.0,0.0,17
1078554,8628974043,167.0,186.0,27.0,0,0.533,728.0,0.0,17
1078555,8628982045,161.0,180.0,20.0,0,0.482,728.0,0.0,17
1078556,8628990043,161.0,175.0,13.0,0,0.465,728.0,0.0,17
1078557,8628998045,156.0,171.0,7.0,0,0.433,728.0,0.0,17
1078558,8629006045,156.0,167.0,2.0,0,0.422,728.0,0.0,17
1078559,8629014043,156.0,164.0,-3.0,0,0.434,728.0,0.0,17
1078560,8629022043,148.0,160.0,-7.0,0,0.423,728.0,0.0,17
1078561,8629030045,145.0,157.0,-11.0,0,0.433,728.0,0.0,17
1078562,8629038044,144.0,154.0,-15.0,0,0.443,728.0,0.0,17
1078563,8629046046,144.0,151.0,-18.0,0,0.43,728.0,0.0,17
1078564,8629054043,143.0,149.0,-21.0,0,0.437,728.0,0.0,17
1078565,8629062044,136.0,146.0,-24.0,0,0.445,728.0,0.0,17
1078566,8629070043,133.0,143.0,-27.0,0,0.453,728.0,0.0,17
1078567,8629078043,130.0,140.0,-30.0,0,0.461,728.0,0.0,17
1078568,8629086043,125.0,136.0,-33.0,0,0.469,728.0,0.0,17
1078569,8629094043,125.0,133.0,-36.0,0,0.478,728.0,0.0,17
1078570,8629102043,121.0,130.0,-39.0,0,0.486,728.0,0.0,17
1078571,8629110043,122.0,128.0,-41.0,0,0.471,728.0,0.0,17
1078572,8629118043,119.0,126.0,-43.0,0,0.477,728.0,0.0,17
1078573,8629126043,114.0,123.0,-46.0,0,0.506,728.0,0.0,17
1078574,8629134043,119.0,122.0,-48.0,0,0.49,728.0,0.0,17
1078575,8629142043,112.0,120.0,-50.0,0,0.496,728.0,0.0,17
1078576,8629150046,115.0,119.0,-51.0,0,0.478,728.0,0.0,17
1078577,8629158043,112.0,117.0,-53.0,0,0.504,728.0,0.0,17
1078578,8629166043,105.0,114.0,-55.0,0,0.509,728.0,0.0,17
1078579,8629174043,110.0,113.0,-56.0,0,0.491,728.0,0.0,17
1078580,8629182043,105.0,111.0,-58.0,0,0.517,728.0,0.0,17
1078581,8629190044,107.0,110.0,-59.0,0,0.499,728.0,0.0,17
1078582,8629198043,104.0,109.0,-60.0,0,0.501,728.0,0.0,17
1078583,8629206043,102.0,107.0,-61.0,0,0.504,728.0,0.0,17
1078584,8629214043,105.0,107.0,-62.0,0,0.506,728.0,0.0,17
1078585,8629222043,102.0,105.0,-63.0,0,0.509,728.0,0.0,17
1078586,8629230043,106.0,106.0,-63.0,1,0.488,728.0,0.0,17
1078587,8629238045,107.0,106.0,-63.0,0,0.488,728.0,0.0,17
1078588,8629246045,107.0,106.0,-63.0,0,0.487,728.0,0.0,17
1078589,8629254043,110.0,107.0,-63.0,0,0.487,728.0,0.0,17
1078590,8629262043,109.0,108.0,-62.0,0,0.504,728.0,0.0,17
1078591,8629270043,111.0,108.0,-61.0,0,0.5,728.0,0.0,17
1078592,8629278043,116.0,110.0,-60.0,0,0.497,728.0,0.0,17
1078593,8629286043,115.0,111.0,-59.0,0,0.494,728.0,0.0,17
1078594,8629294043,115.0,112.0,-58.0,0,0.491,728.0,0.0,17
1078595,8629302043,116.0,113.0,-56.0,0,0.506,728.0,0.0,17
1078596,8629310043,116.0,114.0,-55.0,0,0.482,728.0,0.0,17
1078597,8629318043,119.0,115.0,-54.0,0,0.479,728.0,0.0,17
1078598,8629326043,116.0,115.0,-53.0,0,0.476,728.0,0.0,17
1078599,8629334047,122.0,117.0,-51.0,0,0.491,728.0,0.0,17
1078600,8629342043,125.0,119.0,-50.0,0,0.467,728.0,0.0,17
1078601,8629350043,127.0,121.0,-48.0,0,0.483,728.0,0.0,17
1078602,8629358043,132.0,124.0,-46.0,0,0.477,728.0,0.0,17
1078603,8629366045,134.0,126.0,-44.0,0,0.471,728.0,0.0,17
1078604,8629374043,147.0,131.0,-40.0,0,0.503,728.0,0.0,17
1078605,8629382047,149.0,135.0,-37.0,0,0.472,728.0,0.0,17
1078606,8629390046,161.0,142.0,-33.0,0,0.482,728.0,0.0,17
1078607,8629398046,176.0,150.0,-27.0,0,0.507,728.0,0.0,17
1078608,8629406043,190.0,160.0,-20.0,0,0.506,728.0,0.0,17
1078609,8629414043,207.0,171.0,-12.0,0,0.501,728.0,0.0,17
1078610,8629422043,218.0,183.0,-3.0,0,0.493,728.0,0.0,17
1078611,8629430043,230.0,194.0,6.0,0,0.512,728.0,0.0,17
1078612,8629438047,249.0,207.0,17.0,0,0.569,728.0,0.0,17
1078613,8629446043,261.0,220.0,28.0,0,0.6,728.0,0.0,17
1078614,8629454043,277.0,234.0,40.0,0,0.647,728.0,0.0,17
1078615,8629462043,282.0,246.0,51.0,0,0.668,728.0,0.0,17
1078616,8629470043,292.0,257.0,63.0,0,0.713,728.0,0.0,17
1078617,8629478043,299.0,267.0,74.0,0,0.731,728.0,0.0,17
1078618,8629486043,300.0,275.0,83.0,0,0.726,728.0,0.0,17
1078619,8629494043,308.0,283.0,92.0,0,0.747,728.0,0.0,17
1078620,8629502043,309.0,289.0,100.0,0,0.748,728.0,0.0,17
1078621,8629510043,309.0,294.0,107.0,0,0.743,728.0,0.0,17
1078622,8629518043,304.0,297.0,113.0,0,0.734,728.0,0.0,17
1078623,8629526047,301.0,298.0,116.0,0,0.678,728.0,0.0,17
1078624,8629534043,300.0,298.0,119.0,0,0.681,728.0,0.0,17
1078625,8629542043,288.0,296.0,120.0,0,0.642,728.0,0.0,17
1078626,8629550043,283.0,293.0,120.0,1,0.621,728.0,0.0,17
1078627,8629558047,276.0,289.0,118.0,0,0.654,728.0,0.0,17
1078628,8629566047,268.0,284.0,115.0,0,0.667,728.0,0.0,17
1078629,8629574043,253.0,276.0,111.0,0,0.678,728.0,0.0,17
1078630,8629582043,240.0,267.0,105.0,0,0.703,728.0,0.0,17
1078631,8629590046,232.0,259.0,99.0,0,0.688,728.0,0.0,17
1078632,8629598046,216.0,248.0,91.0,0,0.703,728.0,0.0,17
1078633,8629606043,204.0,238.0,82.0,0,0.694,728.0,0.0,17
1078634,8629614046,195.0,227.0,72.0,0,0.679,728.0,0.0,17
1078635,8629622043,187.0,218.0,63.0,0,0.637,728.0,0.0,17
1078636,8629630043,176.0,207.0,53.0,0,0.62,728.0,0.0,17
1078637,8629638045,171.0,199.0,44.0,0,0.578,728.0,0.0,17
1078638,8629646046,164.0,190.0,34.0,0,0.562,728.0,0.0,17
1078639,8629654043,157.0,182.0,25.0,0,0.521,728.0,0.0,17
1078640,8629662043,150.0,174.0,17.0,0,0.482,728.0,0.0,17
1078641,8629670047,150.0,168.0,9.0,0,0.463,728.0,0.0,17
1078642,8629678043,145.0,163.0,2.0,0,0.464,728.0,0.0,17
1078643,8629686047,144.0,158.0,-5.0,0,0.483,728.0,0.0,17
1078644,8629694043,144.0,155.0,-10.0,0,0.459,728.0,0.0,17
1078645,8629702047,140.0,151.0,-15.0,0,0.473,728.0,0.0,17
1078646,8629710046,143.0,149.0,-19.0,0,0.465,728.0,0.0,17
1078647,8629718047,138.0,146.0,-22.0,0,0.454,728.0,0.0,17
1078648,8629726044,137.0,144.0,-26.0,0,0.486,728.0,0.0,17
1078649,8629734043,136.0,142.0,-28.0,0,0.452,728.0,0.0,17
1078650,8629742043,132.0,140.0,-31.0,0,0.48,728.0,0.0,17
1078651,8629750043,133.0,138.0,-33.0,0,0.466,728.0,0.0,17
1078652,8629758043,131.0,136.0,-35.0,0,0.471,728.0,0.0,17
1078653,8629766043,126.0,134.0,-37.0,0,0.477,728.0,0.0,17
1078654,8629774043,124.0,131.0,-39.0,0,0.482,728.0,0.0,17
1078655,8629782043,123.0,129.0,-41.0,0,0.487,728.0,0.0,17
1078656,8629790043,123.0,128.0,-43.0,0,0.492,728.0,0.0,17
1078657,8629798043,117.0,125.0,-45.0,0,0.498,728.0,0.0,17
1078658,8629806043,115.0,123.0,-47.0,0,0.503,728.0,0.0,17
1078659,8629814043,117.0,121.0,-49.0,0,0.508,728.0,0.0,17
1078660,8629822043,112.0,119.0,-51.0,0,0.513,728.0,0.0,17
1078661,8629830043,111.0,117.0,-52.0,0,0.495,728.0,0.0,17
1078662,8629838043,106.0,114.0,-54.0,0,0.52,728.0,0.0,17
1078663,8629846043,104.0,112.0,-56.0,0,0.526,728.0,0.0,17
1078664,8629854043,105.0,110.0,-58.0,0,0.531,728.0,0.0,17
1078665,8629862043,104.0,109.0,-59.0,0,0.513,728.0,0.0,17
1078666,8629870043,102.0,107.0,-61.0,0,0.538,728.0,0.0,17
1078667,8629878043,101.0,106.0,-62.0,0,0.52,728.0,0.0,17
1078668,8629886043,101.0,104.0,-63.0,0,0.522,728.0,0.0,17
1078669,8629894043,102.0,104.0,-64.0,0,0.525,728.0,0.0,17
1078670,8629902043,109.0,105.0,-64.0,1,0.504,728.0,0.0,17
1078671,8629910043,105.0,105.0,-64.0,0,0.503,728.0,0.0,17
1078672,8629918047,107.0,106.0,-64.0,0,0.502,728.0,0.0,17
1078673,8629926047,104.0,105.0,-64.0,0,0.501,728.0,0.0,17
1078674,8629934043,108.0,106.0,-63.0,0,0.517,728.0,0.0,17
1078675,8629942047,102.0,105.0,-63.0,1,0.496,728.0,0.0,17
1078676,8629950043,111.0,106.0,-63.0,0,0.495,728.0,0.0,17
1078677,8629958047,113.0,108.0,-62.0,0,0.511,728.0,0.0,17
1078678,8629966043,112.0,109.0,-60.0,0,0.525,728.0,0.0,17
1078679,8629974043,114.0,110.0,-59.0,0,0.499,728.0,0.0,17
1078680,8629982043,116.0,112.0,-58.0,0,0.495,728.0,0.0,17
1078681,8629990043,117.0,113.0,-56.0,0,0.51,728.0,0.0,17
1078682,8629998043,120.0,115.0,-55.0,0,0.484,728.0,0.0,17
1078683,8630006043,119.0,116.0,-53.0,0,0.499,728.0,0.0,17
1078684,8630014043,132.0,120.0,-51.0,0,0.492,728.0,0.0,17
1078685,8630022043,127.0,121.0,-48.0,0,0.504,728.0,0.0,17
1078686,8630030043,138.0,125.0,-46.0,0,0.475,728.0,0.0,17
1078687,8630038043,144.0,130.0,-42.0,0,0.507,728.0,0.0,17
1078688,8630046043,148.0,134.0,-39.0,0,0.474,728.0,0.0,17
1078689,8630054043,163.0,141.0,-34.0,0,0.503,728.0,0.0,17
1078690,8630062043,177.0,150.0,-28.0,0,0.506,728.0,0.0,17
1078691,8630070047,188.0,159.0,-21.0,0,0.504,728.0,0.0,17
1078692,8630078044,204.0,170.0,-13.0,0,0.498,728.0,0.0,17
1078693,8630086043,222.0,183.0,-4.0,0,0.505,728.0,0.0,17
1078694,8630094043,244.0,198.0,7.0,0,0.563,728.0,0.0,17
1078695,8630102043,258.0,212.0,19.0,0,0.61,728.0,0.0,17
1078696,8630110043,275.0,227.0,31.0,0,0.647,728.0,0.0,17
1078697,8630118044,289.0,242.0,44.0,0,0.696,728.0,0.0,17
1078698,8630126043,294.0,255.0,57.0,0,0.735,728.0,0.0,17
1078699,8630134043,308.0,268.0,70.0,0,0.771,728.0,0.0,17
1078700,8630142043,313.0,279.0,82.0,0,0.792,728.0,0.0,17
1078701,8630150043,319.0,288.0,93.0,0,0.805,728.0,0.0,17
1078702,8630158043,323.0,297.0,103.0,0,0.811,728.0,0.0,17
1078703,8630166043,324.0,303.0,112.0,0,0.811,728.0,0.0,17
1078704,8630174047,326.0,309.0,119.0,0,0.787,728.0,0.0,17
1078705,8630182043,320.0,312.0,125.0,0,0.775,728.0,0.0,17
1078706,8630190043,320.0,314.0,130.0,0,0.76,728.0,0.0,17
1078707,8630198045,314.0,314.0,133.0,0,0.721,728.0,0.0,17
1078708,8630206043,304.0,311.0,134.0,0,0.679,728.0,0.0,17
1078709,8630214046,301.0,309.0,134.0,1,0.658,728.0,0.0,17
1078710,8630222043,287.0,304.0,132.0,0,0.693,728.0,0.0,17
1078711,8630230045,279.0,298.0,129.0,0,0.708,728.0,0.0,17
1078712,8630238043,269.0,291.0,124.0,0,0.741,728.0,0.0,17
1078713,8630246043,251.0,281.0,118.0,0,0.749,728.0,0.0,17
1078714,8630254043,242.0,272.0,111.0,0,0.752,728.0,0.0,17
1078715,8630262046,232.0,262.0,103.0,0,0.751,728.0,0.0,17
1078716,8630270046,223.0,253.0,94.0,0,0.745,728.0,0.0,17
1078717,8630278047,208.0,242.0,85.0,0,0.72,728.0,0.0,17
1078718,8630286043,193.0,230.0,75.0,0,0.705,728.0,0.0,17
1078719,8630294046,194.0,221.0,65.0,0,0.674,728.0,0.0,17
1078720,8630302043,179.0,211.0,55.0,0,0.642,728.0,0.0,17
1078721,8630310043,177.0,203.0,45.0,0,0.609,728.0,0.0,17
1078722,8630318043,170.0,195.0,36.0,0,0.565,728.0,0.0,17
1078723,8630326047,163.0,187.0,28.0,0,0.524,728.0,0.0,17
1078724,8630334046,159.0,180.0,19.0,0,0.513,728.0,0.0,17
1078725,8630342046,156.0,174.0,12.0,0,0.459,728.0,0.0,17
1078726,8630350043,155.0,170.0,5.0,0,0.455,728.0,0.0,17
1078727,8630358047,148.0,164.0,-1.0,0,0.453,728.0,0.0,17
1078728,8630366046,146.0,160.0,-7.0,0,0.471,728.0,0.0,17
1078729,8630374043,144.0,156.0,-12.0,0,0.466,728.0,0.0,17
1078730,8630382046,140.0,152.0,-17.0,0,0.482,728.0,0.0,17
1078731,8630390043,139.0,149.0,-21.0,0,0.475,728.0,0.0,17
1078732,8630398043,135.0,146.0,-25.0,0,0.487,728.0,0.0,17
1078733,8630406043,130.0,142.0,-29.0,0,0.5,728.0,0.0,17
1078734,8630414043,124.0,138.0,-32.0,0,0.489,728.0,0.0,17
1078735,8630422047,124.0,134.0,-36.0,0,0.522,728.0,0.0,17
1078736,8630430043,121.0,131.0,-39.0,0,0.511,728.0,0.0,17
1078737,8630438047,121.0,129.0,-42.0,0,0.521,728.0,0.0,17
1078738,8630446043,115.0,125.0,-45.0,0,0.53,728.0,0.0,17
1078739,8630454043,116.0,123.0,-48.0,0,0.539,728.0,0.0,17
1078740,8630462043,107.0,119.0,-51.0,0,0.548,728.0,0.0,17
1078741,8630470043,107.0,116.0,-54.0,0,0.556,728.0,0.0,17
1078742,8630478046,103.0,113.0,-57.0,0,0.565,728.0,0.0,17
1078743,8630486047,100.0,110.0,-59.0,0,0.55,728.0,0.0,17
1078744,8630494043,101.0,108.0,-62.0,0,0.578,728.0,0.0,17
1078745,8630502047,96.0,105.0,-64.0,0,0.563,728.0,0.0,17
1078746,8630510043,97.0,103.0,-67.0,0,0.591,728.0,0.0,17
1078747,8630518045,98.0,102.0,-68.0,0,0.554,728.0,0.0,17
1078748,8630526043,94.0,100.0,-70.0,0,0.577,728.0,0.0,17
1078749,8630534043,95.0,99.0,-71.0,0,0.56,728.0,0.0,17
1078750,8630542045,96.0,98.0,-72.0,0,0.561,728.0,0.0,17
1078751,8630550045,93.0,97.0,-73.0,0,0.563,728.0,0.0,17
1078752,8630558045,96.0,97.0,-74.0,0,0.564,728.0,0.0,17
1078753,8630566043,96.0,96.0,-74.0,1,0.544,728.0,0.0,17
1078754,8630574043,97.0,97.0,-74.0,0,0.543,728.0,0.0,17
1078755,8630582044,98.0,97.0,-74.0,0,0.542,728.0,0.0,17
1078756,8630590046,97.0,97.0,-74.0,0,0.54,728.0,0.0,17
1078757,8630598047,97.0,97.0,-73.0,0,0.556,728.0,0.0,17
1078758,8630606045,96.0,97.0,-73.0,1,0.535,728.0,0.0,17
1078759,8630614043,99.0,97.0,-72.0,0,0.551,728.0,0.0,17
1078760,8630622043,96.0,97.0,-72.0,1,0.531,728.0,0.0,17
1078761,8630630046,100.0,98.0,-71.0,0,0.547,728.0,0.0,17
1078762,8630638043,100.0,98.0,-71.0,1,0.526,728.0,0.0,17
1078763,8630646043,100.0,99.0,-70.0,0,0.542,728.0,0.0,17
1078764,8630654043,102.0,99.0,-69.0,0,0.538,728.0,0.0,17
1078765,8630662043,100.0,100.0,-68.0,0,0.535,728.0,0.0,17
1078766,8630670043,106.0,101.0,-67.0,0,0.531,728.0,0.0,17
1078767,8630678043,108.0,103.0,-66.0,0,0.527,728.0,0.0,17
1078768,8630686043,108.0,104.0,-64.0,0,0.541,728.0,0.0,17
1078769,8630694043,116.0,107.0,-62.0,0,0.533,728.0,0.0,17
1078770,8630702043,123.0,111.0,-59.0,0,0.545,728.0,0.0,17
1078771,8630710043,134.0,116.0,-56.0,0,0.534,728.0,0.0,17
1078772,8630718043,145.0,123.0,-51.0,0,0.56,728.0,0.0,17
1078773,8630726043,161.0,133.0,-45.0,0,0.56,728.0,0.0,17
1078774,8630734043,178.0,144.0,-38.0,0,0.556,728.0,0.0,17
1078775,8630742043,192.0,155.0,-29.0,0,0.56,728.0,0.0,17
1078776,8630750043,207.0,168.0,-19.0,0,0.542,728.0,0.0,17
1078777,8630758043,230.0,183.0,-8.0,0,0.522,728.0,0.0,17
1078778,8630766046,246.0,198.0,4.0,0,0.561,728.0,0.0,17
1078779,8630774045,266.0,215.0,18.0,0,0.622,728.0,0.0,17
1078780,8630782043,275.0,229.0,31.0,0,0.656,728.0,0.0,17
1078781,8630790043,290.0,244.0,45.0,0,0.709,728.0,0.0,17
1078782,8630798043,300.0,258.0,59.0,0,0.752,728.0,0.0,17
1078783,8630806043,308.0,270.0,72.0,0,0.779,728.0,0.0,17
1078784,8630814043,317.0,281.0,84.0,0,0.799,728.0,0.0,17
1078785,8630822043,317.0,290.0,95.0,0,0.811,728.0,0.0,17
1078786,8630830043,325.0,298.0,105.0,0,0.816,728.0,0.0,17
1078787,8630838043,324.0,305.0,114.0,0,0.815,728.0,0.0,17
1078788,8630846047,319.0,308.0,121.0,0,0.791,728.0,0.0,17
1078789,8630854043,320.0,311.0,126.0,0,0.757,728.0,0.0,17
1078790,8630862047,310.0,311.0,130.0,0,0.74,728.0,0.0,17
1078791,8630870043,305.0,309.0,132.0,0,0.7,728.0,0.0,17
1078792,8630878043,298.0,307.0,132.0,1,0.66,728.0,0.0,17
1078793,8630886043,290.0,303.0,131.0,0,0.675,728.0,0.0,17
1078794,8630894045,280.0,297.0,128.0,0,0.71,728.0,0.0,17
1078795,8630902043,268.0,290.0,124.0,0,0.723,728.0,0.0,17
1078796,8630910043,255.0,282.0,119.0,0,0.733,728.0,0.0,17
1078797,8630918047,244.0,272.0,112.0,0,0.757,728.0,0.0,17
1078798,8630926043,227.0,261.0,104.0,0,0.757,728.0,0.0,17
1078799,8630934046,217.0,251.0,95.0,0,0.751,728.0,0.0,17
1078800,8630942045,206.0,240.0,85.0,0,0.739,728.0,0.0,17
1078801,8630950043,186.0,227.0,74.0,0,0.721,728.0,0.0,17
1078802,8630958043,181.0,216.0,63.0,0,0.687,728.0,0.0,17
1078803,8630966043,170.0,205.0,52.0,0,0.652,728.0,0.0,17
1078804,8630974045,162.0,194.0,42.0,0,0.607,728.0,0.0,17
1078805,8630982043,153.0,184.0,31.0,0,0.585,728.0,0.0,17
1078806,8630990046,148.0,175.0,21.0,0,0.541,728.0,0.0,17
1078807,8630998043,143.0,168.0,11.0,0,0.512,728.0,0.0,17
1078808,8631006047,136.0,160.0,3.0,0,0.464,728.0,0.0,17
1078809,8631014043,132.0,153.0,-6.0,0,0.504,728.0,0.0,17
1078810,8631022044,131.0,148.0,-13.0,0,0.491,728.0,0.0,17
1078811,8631030043,124.0,142.0,-20.0,0,0.512,728.0,0.0,17
1078812,8631038043,124.0,138.0,-26.0,0,0.512,728.0,0.0,17
1078813,8631046043,122.0,134.0,-31.0,0,0.509,728.0,0.0,17
1078814,8631054043,118.0,130.0,-36.0,0,0.525,728.0,0.0,17
1078815,8631062043,116.0,127.0,-40.0,0,0.519,728.0,0.0,17
1078816,8631070043,116.0,124.0,-44.0,0,0.531,728.0,0.0,17
1078817,8631078043,112.0,121.0,-47.0,0,0.521,728.0,0.0,17
1078818,8631086047,110.0,118.0,-50.0,0,0.531,728.0,0.0,17
1078819,8631094043,106.0,115.0,-53.0,0,0.54,728.0,0.0,17
1078820,8631102043,105.0,113.0,-56.0,0,0.549,728.0,0.0,17
1078821,8631110043,104.0,111.0,-59.0,0,0.558,728.0,0.0,17
1078822,8631118043,99.0,108.0,-61.0,0,0.544,728.0,0.0,17
1078823,8631126043,99.0,106.0,-63.0,0,0.55,728.0,0.0,17
1078824,8631134043,96.0,103.0,-65.0,0,0.556,728.0,0.0,17
1078825,8631142043,91.0,100.0,-68.0,0,0.583,728.0,0.0,17
1078826,8631150043,90.0,98.0,-70.0,0,0.569,728.0,0.0,17
1078827,8631158044,91.0,96.0,-72.0,0,0.574,728.0,0.0,17
1078828,8631166043,86.0,94.0,-73.0,0,0.558,728.0,0.0,17
1078829,8631174045,87.0,92.0,-75.0,0,0.581,728.0,0.0,17
1078830,8631182043,84.0,90.0,-77.0,0,0.586,728.0,0.0,17
1078831,8631190048,85.0,89.0,-78.0,0,0.569,728.0,0.0,17
1078832,8631198043,87.0,88.0,-79.0,0,0.571,728.0,0.0,17
1078833,8631206046,80.0,86.0,-80.0,0,0.573,728.0,0.0,17
1078834,8631214043,87.0,87.0,-81.0,0,0.575,728.0,0.0,17
1078835,8631222043,84.0,86.0,-81.0,1,0.557,728.0,0.0,17
1078836,8631230043,89.0,87.0,-81.0,0,0.556,728.0,0.0,17
1078837,8631238047,88.0,87.0,-81.0,0,0.555,728.0,0.0,17
1078838,8631246047,85.0,87.0,-81.0,0,0.554,728.0,0.0,17
1078839,8631254047,93.0,88.0,-80.0,0,0.569,728.0,0.0,17
1078840,8631262044,90.0,89.0,-79.0,0,0.565,728.0,0.0,17
1078841,8631270043,92.0,89.0,-78.0,0,0.562,728.0,0.0,17
1078842,8631278045,91.0,90.0,-77.0,0,0.558,728.0,0.0,17
1078843,8631286047,95.0,91.0,-76.0,0,0.555,728.0,0.0,17
1078844,8631294045,96.0,92.0,-75.0,0,0.551,728.0,0.0,17
1078845,8631302043,95.0,93.0,-73.0,0,0.564,728.0,0.0,17
1078846,8631310046,98.0,94.0,-72.0,0,0.541,728.0,0.0,17
1078847,8631318047,103.0,96.0,-70.0,0,0.553,728.0,0.0,17
1078848,8631326043,101.0,97.0,-69.0,0,0.531,728.0,0.0,17
1078849,8631334043,108.0,100.0,-66.0,0,0.56,728.0,0.0,17
1078850,8631342043,104.0,101.0,-65.0,0,0.517,728.0,0.0,17
1078851,8631350043,108.0,103.0,-63.0,0,0.53,728.0,0.0,17
1078852,8631358046,114.0,105.0,-60.0,0,0.541,728.0,0.0,17
1078853,8631366046,112.0,107.0,-58.0,0,0.514,728.0,0.0,17
1078854,8631374045,115.0,109.0,-56.0,0,0.507,728.0,0.0,17
1078855,8631382045,120.0,112.0,-54.0,0,0.5,728.0,0.0,17
1078856,8631390043,131.0,116.0,-50.0,0,0.528,728.0,0.0,17
1078857,8631398043,143.0,123.0,-46.0,0,0.515,728.0,0.0,17
1078858,8631406043,153.0,130.0,-41.0,0,0.52,728.0,0.0,17
1078859,8631414043,168.0,139.0,-35.0,0,0.52,728.0,0.0,17
1078860,8631422045,181.0,149.0,-27.0,0,0.531,728.0,0.0,17
1078861,8631430043,205.0,163.0,-18.0,0,0.518,728.0,0.0,17
1078862,8631438043,220.0,177.0,-8.0,0,0.503,728.0,0.0,17
1078863,8631446043,237.0,191.0,4.0,0,0.55,728.0,0.0,17
1078864,8631454044,260.0,208.0,17.0,0,0.599,728.0,0.0,17
1078865,8631462043,273.0,224.0,30.0,0,0.641,728.0,0.0,17
1078866,8631470043,294.0,241.0,45.0,0,0.705,728.0,0.0,17
1078867,8631478046,306.0,257.0,59.0,0,0.741,728.0,0.0,17
1078868,8631486044,317.0,271.0,74.0,0,0.791,728.0,0.0,17
1078869,8631494043,329.0,285.0,88.0,0,0.818,728.0,0.0,17
1078870,8631502047,335.0,297.0,101.0,0,0.835,728.0,0.0,17
1078871,8631510044,343.0,308.0,114.0,0,0.857,728.0,0.0,17
1078872,8631518044,346.0,318.0,125.0,0,0.851,728.0,0.0,17
1078873,8631526043,342.0,323.0,134.0,0,0.833,728.0,0.0,17
1078874,8631534045,345.0,329.0,142.0,0,0.825,728.0,0.0,17
1078875,8631542043,342.0,332.0,148.0,0,0.794,728.0,0.0,17
1078876,8631550046,335.0,333.0,152.0,0,0.758,728.0,0.0,17
1078877,8631558047,329.0,332.0,155.0,0,0.74,728.0,0.0,17
1078878,8631566043,319.0,329.0,156.0,0,0.701,728.0,0.0,17
1078879,8631574043,312.0,325.0,155.0,1,0.699,728.0,0.0,17
1078880,8631582043,299.0,318.0,152.0,0,0.732,728.0,0.0,17
1078881,8631590047,287.0,311.0,147.0,0,0.765,728.0,0.0,17
1078882,8631598047,273.0,302.0,141.0,0,0.775,728.0,0.0,17
1078883,8631606045,255.0,290.0,134.0,0,0.782,728.0,0.0,17
1078884,8631614045,244.0,279.0,125.0,0,0.799,728.0,0.0,17
1078885,8631622044,230.0,267.0,115.0,0,0.794,728.0,0.0,17
1078886,8631630044,218.0,255.0,104.0,0,0.784,728.0,0.0,17
1078887,8631638043,204.0,243.0,93.0,0,0.757,728.0,0.0,17
1078888,8631646043,188.0,230.0,81.0,0,0.738,728.0,0.0,17
1078889,8631654046,179.0,217.0,69.0,0,0.704,728.0,0.0,17
1078890,8631662043,164.0,204.0,56.0,0,0.676,728.0,0.0,17
1078891,8631670043,157.0,193.0,44.0,0,0.629,728.0,0.0,17
1078892,8631678043,148.0,182.0,32.0,0,0.593,728.0,0.0,17
1078893,8631686047,141.0,172.0,21.0,0,0.55,728.0,0.0,17
1078894,8631694043,133.0,163.0,10.0,0,0.519,728.0,0.0,17
1078895,8631702043,127.0,154.0,0.0,0,0.487,728.0,0.0,17
1078896,8631710045,126.0,147.0,-9.0,0,0.496,728.0,0.0,17
1078897,8631718047,120.0,141.0,-17.0,0,0.502,728.0,0.0,17
1078898,8631726043,114.0,134.0,-25.0,0,0.524,728.0,0.0,17
1078899,8631734047,114.0,129.0,-31.0,0,0.508,728.0,0.0,17
1078900,8631742043,112.0,125.0,-37.0,0,0.525,728.0,0.0,17
1078901,8631750043,109.0,121.0,-43.0,0,0.543,728.0,0.0,17
1078902,8631758043,103.0,117.0,-48.0,0,0.539,728.0,0.0,17
1078903,8631766043,100.0,113.0,-52.0,0,0.533,728.0,0.0,17
1078904,8631774043,97.0,109.0,-56.0,0,0.544,728.0,0.0,17
1078905,8631782043,92.0,105.0,-60.0,0,0.556,728.0,0.0,17
1078906,8631790043,94.0,102.0,-64.0,0,0.567,728.0,0.0,17
1078907,8631798043,91.0,99.0,-67.0,0,0.557,728.0,0.0,17
1078908,8631806046,85.0,96.0,-70.0,0,0.565,728.0,0.0,17
1078909,8631814043,86.0,94.0,-73.0,0,0.573,728.0,0.0,17
1078910,8631822043,85.0,91.0,-75.0,0,0.56,728.0,0.0,17
1078911,8631830045,82.0,89.0,-77.0,0,0.565,728.0,0.0,17
1078912,8631838045,83.0,88.0,-79.0,0,0.57,728.0,0.0,17
1078913,8631846043,77.0,85.0,-81.0,0,0.575,728.0,0.0,17
1078914,8631854044,77.0,83.0,-83.0,0,0.579,728.0,0.0,17
1078915,8631862046,76.0,81.0,-84.0,0,0.564,728.0,0.0,17
1078916,8631870046,76.0,80.0,-86.0,0,0.586,728.0,0.0,17
1078917,8631878043,80.0,80.0,-87.0,0,0.57,728.0,0.0,17
1078918,8631886046,76.0,79.0,-87.0,1,0.553,728.0,0.0,17
1078919,8631894043,80.0,79.0,-87.0,0,0.553,728.0,0.0,17
1078920,8631902045,74.0,78.0,-88.0,0,0.571,728.0,0.0,17
1078921,8631910044,74.0,77.0,-88.0,1,0.554,728.0,0.0,17
1078922,8631918043,80.0,78.0,-88.0,0,0.553,728.0,0.0,17
1078923,8631926043,80.0,78.0,-88.0,0,0.552,728.0,0.0,17
1078924,8631934043,84.0,80.0,-87.0,0,0.566,728.0,0.0,17
1078925,8631942045,84.0,81.0,-86.0,0,0.563,728.0,0.0,17
1078926,8631950045,86.0,82.0,-85.0,0,0.56,728.0,0.0,17
1078927,8631958045,87.0,83.0,-83.0,0,0.571,728.0,0.0,17
1078928,8631966047,89.0,85.0,-82.0,0,0.551,728.0,0.0,17
1078929,8631974046,89.0,86.0,-80.0,0,0.562,728.0,0.0,17
1078930,8631982046,92.0,87.0,-78.0,0,0.556,728.0,0.0,17
1078931,8631990047,93.0,89.0,-77.0,0,0.535,728.0,0.0,17
1078932,8631998044,96.0,90.0,-75.0,0,0.547,728.0,0.0,17
1078933,8632006046,97.0,92.0,-73.0,0,0.541,728.0,0.0,17
1078934,8632014046,98.0,93.0,-71.0,0,0.534,728.0,0.0,17
1078935,8632022046,98.0,95.0,-69.0,0,0.528,728.0,0.0,17
1078936,8632030045,104.0,97.0,-67.0,0,0.522,728.0,0.0,17
1078937,8632038047,105.0,99.0,-65.0,0,0.515,728.0,0.0,17
1078938,8632046043,107.0,101.0,-63.0,0,0.509,728.0,0.0,17
1078939,8632054043,108.0,103.0,-60.0,0,0.519,728.0,0.0,17
1078940,8632062043,109.0,104.0,-58.0,0,0.493,728.0,0.0,17
1078941,8632070043,111.0,106.0,-56.0,0,0.487,728.0,0.0,17
1078942,8632078043,118.0,109.0,-54.0,0,0.48,728.0,0.0,17
1078943,8632086046,118.0,111.0,-51.0,0,0.49,728.0,0.0,17
1078944,8632094043,127.0,115.0,-48.0,0,0.48,728.0,0.0,17
1078945,8632102044,136.0,120.0,-45.0,0,0.47,728.0,0.0,17
1078946,8632110046,148.0,127.0,-40.0,0,0.494,728.0,0.0,17
1078947,8632118043,161.0,135.0,-35.0,0,0.478,728.0,0.0,17
1078948,8632126043,171.0,144.0,-28.0,0,0.494,728.0,0.0,17
1078949,8632134043,192.0,155.0,-20.0,0,0.488,728.0,0.0,17
1078950,8632142047,208.0,168.0,-11.0,0,0.479,728.0,0.0,17
1078951,8632150043,224.0,182.0,0.0,0,0.523,728.0,0.0,17
1078952,8632158046,247.0,198.0,12.0,0,0.568,728.0,0.0,17
1078953,8632166043,260.0,213.0,25.0,0,0.617,728.0,0.0,17
1078954,8632174043,281.0,229.0,38.0,0,0.655,728.0,0.0,17
1078955,8632182043,292.0,244.0,52.0,0,0.705,728.0,0.0,17
1078956,8632190043,313.0,261.0,67.0,0,0.754,728.0,0.0,17
1078957,8632198043,323.0,276.0,81.0,0,0.781,728.0,0.0,17
1078958,8632206043,333.0,290.0,95.0,0,0.811,728.0,0.0,17
1078959,8632214043,342.0,303.0,109.0,0,0.836,728.0,0.0,17
1078960,8632222043,342.0,312.0,121.0,0,0.835,728.0,0.0,17
1078961,8632230043,348.0,321.0,131.0,0,0.823,728.0,0.0,17
1078962,8632238043,346.0,327.0,140.0,0,0.818,728.0,0.0,17
1078963,8632246046,340.0,330.0,148.0,0,0.81,728.0,0.0,17
1078964,8632254043,340.0,332.0,153.0,0,0.762,728.0,0.0,17
1078965,8632262046,332.0,332.0,157.0,0,0.746,728.0,0.0,17
1078966,8632270043,326.0,331.0,158.0,0,0.691,728.0,0.0,17
1078967,8632278045,317.0,327.0,158.0,1,0.673,728.0,0.0,17
1078968,8632286043,305.0,322.0,156.0,0,0.703,728.0,0.0,17
1078969,8632294047,296.0,316.0,153.0,0,0.716,728.0,0.0,17
1078970,8632302047,285.0,308.0,148.0,0,0.745,728.0,0.0,17
1078971,8632310044,273.0,300.0,142.0,0,0.754,728.0,0.0,17
1078972,8632318043,262.0,291.0,135.0,0,0.76,728.0,0.0,17
1078973,8632326047,241.0,279.0,126.0,0,0.776,728.0,0.0,17
1078974,8632334043,230.0,267.0,116.0,0,0.77,728.0,0.0,17
1078975,8632342045,214.0,254.0,106.0,0,0.749,728.0,0.0,17
1078976,8632350043,204.0,242.0,94.0,0,0.746,728.0,0.0,17
1078977,8632358047,198.0,231.0,83.0,0,0.707,728.0,0.0,17
1078978,8632366045,180.0,219.0,71.0,0,0.687,728.0,0.0,17
1078979,8632374043,171.0,207.0,60.0,0,0.645,728.0,0.0,17
1078980,8632382043,163.0,197.0,48.0,0,0.623,728.0,0.0,17
1078981,8632390043,155.0,186.0,37.0,0,0.581,728.0,0.0,17
1078982,8632398046,151.0,178.0,27.0,0,0.54,728.0,0.0,17
1078983,8632406043,142.0,169.0,17.0,0,0.514,728.0,0.0,17
1078984,8632414046,140.0,162.0,8.0,0,0.477,728.0,0.0,17
1078985,8632422043,133.0,155.0,-1.0,0,0.467,728.0,0.0,17
1078986,8632430047,127.0,148.0,-8.0,0,0.452,728.0,0.0,17
1078987,8632438044,131.0,144.0,-15.0,0,0.47,728.0,0.0,17
1078988,8632446043,124.0,139.0,-21.0,0,0.469,728.0,0.0,17
1078989,8632454043,125.0,136.0,-27.0,0,0.484,728.0,0.0,17
1078990,8632462043,122.0,132.0,-31.0,0,0.461,728.0,0.0,17
1078991,8632470043,119.0,129.0,-36.0,0,0.492,728.0,0.0,17
1078992,8632478043,116.0,126.0,-39.0,0,0.466,728.0,0.0,17
1078993,8632486043,111.0,122.0,-43.0,0,0.494,728.0,0.0,17
1078994,8632494043,110.0,119.0,-46.0,0,0.485,728.0,0.0,17
1078995,8632502043,107.0,116.0,-50.0,0,0.513,728.0,0.0,17
1078996,8632510043,104.0,113.0,-53.0,0,0.504,728.0,0.0,17
1078997,8632518047,101.0,110.0,-55.0,0,0.493,728.0,0.0,17
1078998,8632526043,98.0,107.0,-58.0,0,0.518,728.0,0.0,17
1078999,8632534043,96.0,105.0,-61.0,0,0.526,728.0,0.0,17
1079000,8632542043,96.0,103.0,-63.0,0,0.514,728.0,0.0,17
1079001,8632550043,95.0,101.0,-65.0,0,0.519,728.0,0.0,17
1079002,8632558046,95.0,99.0,-67.0,0,0.524,728.0,0.0,17
1079003,8632566044,92.0,98.0,-69.0,0,0.529,728.0,0.0,17
1079004,8632574047,90.0,96.0,-70.0,0,0.515,728.0,0.0,17
1079005,8632582043,89.0,94.0,-72.0,0,0.536,728.0,0.0,17
1079006,8632590047,88.0,93.0,-73.0,0,0.522,728.0,0.0,17
1079007,8632598043,87.0,91.0,-74.0,0,0.524,728.0,0.0,17
1079008,8632606046,84.0,89.0,-75.0,0,0.526,728.0,0.0,17
1079009,8632614045,83.0,88.0,-76.0,0,0.528,728.0,0.0,17
1079010,8632622046,87.0,88.0,-77.0,0,0.53,728.0,0.0,17
1079011,8632630043,88.0,88.0,-77.0,1,0.514,728.0,0.0,17
1079012,8632638045,86.0,87.0,-78.0,0,0.531,728.0,0.0,17
1079013,8632646043,88.0,88.0,-78.0,1,0.515,728.0,0.0,17
1079014,8632654046,90.0,88.0,-77.0,0,0.527,728.0,0.0,17
1079015,8632662043,91.0,89.0,-77.0,1,0.511,728.0,0.0,17
1079016,8632670043,90.0,89.0,-76.0,0,0.523,728.0,0.0,17
1079017,8632678043,95.0,91.0,-75.0,0,0.52,728.0,0.0,17
1079018,8632686043,92.0,91.0,-74.0,0,0.516,728.0,0.0,17
1079019,8632694047,100.0,93.0,-73.0,0,0.512,728.0,0.0,17
1079020,8632702045,100.0,95.0,-71.0,0,0.523,728.0,0.0,17
1079021,8632710043,105.0,97.0,-69.0,0,0.517,728.0,0.0,17
1079022,8632718043,104.0,99.0,-67.0,0,0.511,728.0,0.0,17
1079023,8632726043,108.0,101.0,-65.0,0,0.505,728.0,0.0,17
1079024,8632734043,112.0,104.0,-62.0,0,0.514,728.0,0.0,17
1079025,8632742043,112.0,106.0,-60.0,0,0.49,728.0,0.0,17
1079026,8632750047,115.0,108.0,-57.0,0,0.499,728.0,0.0,17
1079027,8632758043,118.0,110.0,-55.0,0,0.475,728.0,0.0,17
1079028,8632766047,121.0,113.0,-52.0,0,0.484,728.0,0.0,17
1079029,8632774047,122.0,115.0,-50.0,0,0.459,728.0,0.0,17
1079030,8632782046,122.0,117.0,-47.0,0,0.468,728.0,0.0,17
1079031,8632790043,125.0,119.0,-45.0,0,0.443,728.0,0.0,17
1079032,8632798043,127.0,121.0,-43.0,0,0.437,728.0,0.0,17
1079033,8632806043,132.0,124.0,-40.0,0,0.446,728.0,0.0,17
1079034,8632814045,142.0,128.0,-37.0,0,0.437,728.0,0.0,17
1079035,8632822045,146.0,132.0,-33.0,0,0.443,728.0,0.0,17
1079036,8632830043,161.0,139.0,-29.0,0,0.432,728.0,0.0,17
1079037,8632838043,172.0,147.0,-23.0,0,0.452,728.0,0.0,17
1079038,8632846043,183.0,156.0,-17.0,0,0.436,728.0,0.0,17
1079039,8632854043,205.0,168.0,-9.0,0,0.457,728.0,0.0,17
1079040,8632862046,221.0,181.0,0.0,0,0.495,728.0,0.0,17
1079041,8632870046,240.0,195.0,11.0,0,0.552,728.0,0.0,17
1079042,8632878043,260.0,211.0,23.0,0,0.597,728.0,0.0,17
1079043,8632886043,276.0,227.0,36.0,0,0.644,728.0,0.0,17
1079044,8632894043,293.0,243.0,50.0,0,0.692,728.0,0.0,17
1079045,8632902043,309.0,259.0,64.0,0,0.728,728.0,0.0,17
1079046,8632910043,322.0,274.0,78.0,0,0.762,728.0,0.0,17
1079047,8632918043,334.0,289.0,92.0,0,0.792,728.0,0.0,17
1079048,8632926043,335.0,300.0,105.0,0,0.807,728.0,0.0,17
1079049,8632934043,345.0,311.0,118.0,0,0.828,728.0,0.0,17
1079050,8632942043,352.0,321.0,129.0,0,0.82,728.0,0.0,17
1079051,8632950043,351.0,328.0,139.0,0,0.819,728.0,0.0,17
1079052,8632958043,350.0,333.0,147.0,0,0.797,728.0,0.0,17
1079053,8632966043,346.0,336.0,153.0,0,0.768,728.0,0.0,17
1079054,8632974045,344.0,338.0,158.0,0,0.754,728.0,0.0,17
1079055,8632982046,333.0,337.0,161.0,0,0.72,728.0,0.0,17
1079056,8632990047,326.0,334.0,162.0,0,0.685,728.0,0.0,17
1079057,8632998047,322.0,331.0,161.0,1,0.682,728.0,0.0,17
1079058,8633006047,307.0,325.0,159.0,0,0.695,728.0,0.0,17
1079059,8633014044,296.0,318.0,155.0,0,0.724,728.0,0.0,17
1079060,8633022047,281.0,309.0,149.0,0,0.751,728.0,0.0,17
1079061,8633030047,269.0,300.0,142.0,0,0.756,728.0,0.0,17
1079062,8633038043,254.0,288.0,133.0,0,0.773,728.0,0.0,17
1079063,8633046045,238.0,276.0,124.0,0,0.756,728.0,0.0,17
1079064,8633054043,226.0,264.0,113.0,0,0.761,728.0,0.0,17
1079065,8633062046,211.0,251.0,102.0,0,0.737,728.0,0.0,17
1079066,8633070043,197.0,238.0,90.0,0,0.72,728.0,0.0,17
1079067,8633078043,188.0,226.0,78.0,0,0.69,728.0,0.0,17
1079068,8633086043,170.0,212.0,65.0,0,0.667,728.0,0.0,17
1079069,8633094043,164.0,201.0,53.0,0,0.624,728.0,0.0,17
1079070,8633102046,152.0,189.0,40.0,0,0.6,728.0,0.0,17
1079071,8633110046,148.0,179.0,29.0,0,0.548,728.0,0.0,17
1079072,8633118043,140.0,170.0,18.0,0,0.52,728.0,0.0,17
1079073,8633126043,133.0,161.0,8.0,0,0.483,728.0,0.0,17
1079074,8633134043,127.0,152.0,-2.0,0,0.481,728.0,0.0,17
1079075,8633142043,121.0,145.0,-11.0,0,0.488,728.0,0.0,17
1079076,8633150043,118.0,138.0,-19.0,0,0.493,728.0,0.0,17
1079077,8633158043,119.0,134.0,-26.0,0,0.495,728.0,0.0,17
1079078,8633166043,114.0,129.0,-33.0,0,0.513,728.0,0.0,17
1079079,8633174046,112.0,125.0,-38.0,0,0.493,728.0,0.0,17
1079080,8633182043,112.0,122.0,-43.0,0,0.507,728.0,0.0,17
1079081,8633190043,109.0,119.0,-47.0,0,0.501,728.0,0.0,17
1079082,8633198043,105.0,115.0,-51.0,0,0.511,728.0,0.0,17
1079083,8633206047,106.0,113.0,-54.0,0,0.503,728.0,0.0,17
1079084,8633214043,103.0,111.0,-57.0,0,0.511,728.0,0.0,17
1079085,8633222043,97.0,107.0,-60.0,0,0.519,728.0,0.0,17
1079086,8633230043,95.0,104.0,-63.0,0,0.526,728.0,0.0,17
1079087,8633238043,97.0,103.0,-65.0,0,0.515,728.0,0.0,17
1079088,8633246045,92.0,100.0,-68.0,0,0.539,728.0,0.0,17
1079089,8633254045,94.0,99.0,-70.0,0,0.528,728.0,0.0,17
1079090,8633262044,93.0,97.0,-71.0,0,0.514,728.0,0.0,17
1079091,8633270047,92.0,96.0,-72.0,0,0.516,728.0,0.0,17
1079092,8633278047,91.0,95.0,-74.0,0,0.537,728.0,0.0,17
1079093,8633286047,89.0,93.0,-75.0,0,0.523,728.0,0.0,17
1079094,8633294046,87.0,92.0,-76.0,0,0.525,728.0,0.0,17
1079095,8633302043,84.0,90.0,-77.0,0,0.527,728.0,0.0,17
1079096,8633310047,85.0,89.0,-78.0,0,0.529,728.0,0.0,17
1079097,8633318043,84.0,88.0,-79.0,0,0.531,728.0,0.0,17
1079098,8633326045,83.0,86.0,-80.0,0,0.532,728.0,0.0,17
1079099,8633334043,83.0,86.0,-80.0,1,0.516,728.0,0.0,17
1079100,8633342046,80.0,84.0,-81.0,0,0.533,728.0,0.0,17
1079101,8633350043,81.0,83.0,-82.0,0,0.534,728.0,0.0,17
1079102,8633358046,82.0,83.0,-82.0,1,0.518,728.0,0.0,17
1079103,8633366043,84.0,83.0,-82.0,0,0.516,728.0,0.0,17
1079104,8633374046,88.0,84.0,-81.0,0,0.529,728.0,0.0,17
1079105,8633382046,88.0,85.0,-81.0,1,0.512,728.0,0.0,17
1079106,8633390043,88.0,86.0,-80.0,0,0.524,728.0,0.0,17
1079107,8633398045,88.0,86.0,-79.0,0,0.52,728.0,0.0,17
1079108,8633406046,92.0,88.0,-78.0,0,0.517,728.0,0.0,17
1079109,8633414045,93.0,89.0,-77.0,0,0.513,728.0,0.0,17
1079110,8633422047,93.0,90.0,-75.0,0,0.524,728.0,0.0,17
1079111,8633430047,92.0,90.0,-74.0,0,0.504,728.0,0.0,17
1079112,8633438044,99.0,93.0,-72.0,0,0.515,728.0,0.0,17
1079113,8633446043,96.0,93.0,-71.0,0,0.494,728.0,0.0,17
1079114,8633454043,106.0,96.0,-69.0,0,0.505,728.0,0.0,17
1079115,8633462043,103.0,98.0,-67.0,0,0.499,728.0,0.0,17
1079116,8633470043,106.0,100.0,-65.0,0,0.492,728.0,0.0,17
1079117,8633478043,110.0,102.0,-62.0,0,0.501,728.0,0.0,17
1079118,8633486043,111.0,104.0,-60.0,0,0.477,728.0,0.0,17
1079119,8633494046,115.0,107.0,-57.0,0,0.486,728.0,0.0,17
1079120,8633502043,116.0,109.0,-55.0,0,0.462,728.0,0.0,17
1079121,8633510043,123.0,113.0,-52.0,0,0.471,728.0,0.0,17
1079122,8633518043,122.0,115.0,-49.0,0,0.462,728.0,0.0,17
1079123,8633526046,123.0,117.0,-47.0,0,0.439,728.0,0.0,17
1079124,8633534043,126.0,119.0,-44.0,0,0.448,728.0,0.0,17
1079125,8633542047,126.0,121.0,-42.0,0,0.424,728.0,0.0,17
1079126,8633550047,130.0,123.0,-39.0,0,0.434,728.0,0.0,17
1079127,8633558043,131.0,125.0,-37.0,0,0.41,728.0,0.0,17
1079128,8633566043,127.0,125.0,-35.0,0,0.405,728.0,0.0,17
1079129,8633574043,133.0,127.0,-33.0,0,0.4,728.0,0.0,17
1079130,8633582043,141.0,131.0,-31.0,0,0.394,728.0,0.0,17
1079131,8633590047,151.0,136.0,-28.0,0,0.405,728.0,0.0,17
1079132,8633598043,158.0,141.0,-24.0,0,0.414,728.0,0.0,17
1079133,8633606043,168.0,148.0,-19.0,0,0.42,728.0,0.0,17
1079134,8633614043,189.0,158.0,-13.0,0,0.424,728.0,0.0,17
1079135,8633622043,204.0,169.0,-5.0,0,0.467,728.0,0.0,17
1079136,8633630043,218.0,181.0,3.0,0,0.486,728.0,0.0,17
1079137,8633638043,243.0,196.0,14.0,0,0.556,728.0,0.0,17
1079138,8633646043,260.0,211.0,26.0,0,0.598,728.0,0.0,17
1079139,8633654043,282.0,229.0,39.0,0,0.642,728.0,0.0,17
1079140,8633662043,298.0,245.0,53.0,0,0.687,728.0,0.0,17
1079141,8633670043,316.0,262.0,68.0,0,0.732,728.0,0.0,17
1079142,8633678043,330.0,279.0,83.0,0,0.765,728.0,0.0,17
1079143,8633686043,344.0,295.0,98.0,0,0.796,728.0,0.0,17
1079144,8633694043,356.0,310.0,112.0,0,0.812,728.0,0.0,17
1079145,8633702043,360.0,322.0,126.0,0,0.833,728.0,0.0,17
1079146,8633710043,365.0,332.0,138.0,0,0.828,728.0,0.0,17
1079147,8633718047,367.0,341.0,149.0,0,0.828,728.0,0.0,17
1079148,8633726047,368.0,347.0,159.0,0,0.825,728.0,0.0,17
1079149,8633734043,365.0,352.0,166.0,0,0.785,728.0,0.0,17
1079150,8633742043,361.0,354.0,172.0,0,0.772,728.0,0.0,17
1079151,8633750047,356.0,354.0,176.0,0,0.74,728.0,0.0,17
1079152,8633758043,348.0,353.0,178.0,0,0.706,728.0,0.0,17
1079153,8633766043,335.0,349.0,178.0,1,0.672,728.0,0.0,17
1079154,8633774044,328.0,344.0,176.0,0,0.7,728.0,0.0,17
1079155,8633782047,312.0,336.0,172.0,0,0.729,728.0,0.0,17
1079156,8633790043,300.0,327.0,166.0,0,0.755,728.0,0.0,17
1079157,8633798043,285.0,317.0,159.0,0,0.761,728.0,0.0,17
1079158,8633806043,268.0,305.0,151.0,0,0.765,728.0,0.0,17
1079159,8633814043,255.0,293.0,141.0,0,0.777,728.0,0.0,17
1079160,8633822046,240.0,280.0,130.0,0,0.77,728.0,0.0,17
1079161,8633830045,223.0,266.0,118.0,0,0.758,728.0,0.0,17
1079162,8633838047,210.0,253.0,105.0,0,0.741,728.0,0.0,17
1079163,8633846043,200.0,240.0,92.0,0,0.71,728.0,0.0,17
1079164,8633854043,188.0,227.0,80.0,0,0.669,728.0,0.0,17
1079165,8633862043,173.0,214.0,67.0,0,0.647,728.0,0.0,17
1079166,8633870045,164.0,202.0,54.0,0,0.613,728.0,0.0,17
1079167,8633878045,158.0,191.0,42.0,0,0.572,728.0,0.0,17
1079168,8633886046,151.0,182.0,30.0,0,0.542,728.0,0.0,17
1079169,8633894046,149.0,174.0,20.0,0,0.493,728.0,0.0,17
1079170,8633902043,140.0,165.0,10.0,0,0.47,728.0,0.0,17
1079171,8633910043,139.0,159.0,1.0,0,0.468,728.0,0.0,17
1079172,8633918043,132.0,153.0,-7.0,0,0.471,728.0,0.0,17
1079173,8633926047,131.0,147.0,-14.0,0,0.472,728.0,0.0,17
1079174,8633934043,127.0,142.0,-21.0,0,0.489,728.0,0.0,17
1079175,8633942043,120.0,137.0,-27.0,0,0.488,728.0,0.0,17
1079176,8633950043,120.0,133.0,-32.0,0,0.485,728.0,0.0,17
1079177,8633958044,115.0,129.0,-37.0,0,0.497,728.0,0.0,17
1079178,8633966045,111.0,124.0,-42.0,0,0.51,728.0,0.0,17
1079179,8633974043,114.0,122.0,-46.0,0,0.503,728.0,0.0,17
1079180,8633982045,108.0,118.0,-49.0,0,0.495,728.0,0.0,17
1079181,8633990043,105.0,115.0,-53.0,0,0.521,728.0,0.0,17
1079182,8633998043,103.0,112.0,-56.0,0,0.512,728.0,0.0,17
1079183,8634006043,97.0,109.0,-59.0,0,0.518,728.0,0.0,17
1079184,8634014043,96.0,105.0,-62.0,0,0.525,728.0,0.0,17
1079185,8634022043,92.0,102.0,-65.0,0,0.532,728.0,0.0,17
1079186,8634030043,89.0,99.0,-68.0,0,0.538,728.0,0.0,17
1079187,8634038046,92.0,97.0,-71.0,0,0.545,728.0,0.0,17
1079188,8634046044,84.0,94.0,-73.0,0,0.532,728.0,0.0,17
1079189,8634054044,85.0,92.0,-75.0,0,0.536,728.0,0.0,17
1079190,8634062044,81.0,89.0,-77.0,0,0.54,728.0,0.0,17
1079191,8634070045,83.0,88.0,-79.0,0,0.543,728.0,0.0,17
1079192,8634078043,83.0,87.0,-81.0,0,0.547,728.0,0.0,17
1079193,8634086044,80.0,85.0,-82.0,0,0.532,728.0,0.0,17
1079194,8634094045,82.0,84.0,-83.0,0,0.533,728.0,0.0,17
1079195,8634102045,81.0,83.0,-84.0,0,0.534,728.0,0.0,17
1079196,8634110046,82.0,83.0,-84.0,1,0.518,728.0,0.0,17
1079197,8634118047,81.0,83.0,-85.0,0,0.535,728.0,0.0,17
1079198,8634126045,82.0,82.0,-85.0,1,0.518,728.0,0.0,17
1079199,8634134044,84.0,83.0,-85.0,0,0.517,728.0,0.0,17
1079200,8634142045,79.0,82.0,-85.0,0,0.516,728.0,0.0,17
1079201,8634150045,84.0,82.0,-84.0,0,0.528,728.0,0.0,17
1079202,8634158047,85.0,83.0,-84.0,1,0.511,728.0,0.0,17
1079203,8634166045,87.0,84.0,-83.0,0,0.524,728.0,0.0,17
1079204,8634174043,88.0,85.0,-82.0,0,0.52,728.0,0.0,17
1079205,8634182043,89.0,86.0,-81.0,0,0.517,728.0,0.0,17
1079206,8634190046,89.0,87.0,-80.0,0,0.513,728.0,0.0,17
1079207,8634198047,92.0,88.0,-78.0,0,0.524,728.0,0.0,17
1079208,8634206045,91.0,89.0,-77.0,0,0.504,728.0,0.0,17
1079209,8634214045,95.0,90.0,-75.0,0,0.514,728.0,0.0,17
1079210,8634222043,97.0,92.0,-74.0,0,0.494,728.0,0.0,17
1079211,8634230046,101.0,94.0,-72.0,0,0.505,728.0,0.0,17
1079212,8634238043,102.0,96.0,-70.0,0,0.499,728.0,0.0,17
1079213,8634246043,105.0,98.0,-67.0,0,0.508,728.0,0.0,17
1079214,8634254045,107.0,100.0,-65.0,0,0.485,728.0,0.0,17
1079215,8634262043,111.0,103.0,-63.0,0,0.479,728.0,0.0,17
1079216,8634270047,113.0,105.0,-60.0,0,0.489,728.0,0.0,17
1079217,8634278043,114.0,107.0,-58.0,0,0.466,728.0,0.0,17
1079218,8634286043,116.0,110.0,-55.0,0,0.475,728.0,0.0,17
1079219,8634294043,116.0,111.0,-53.0,0,0.452,728.0,0.0,17
1079220,8634302043,119.0,113.0,-50.0,0,0.462,728.0,0.0,17
1079221,8634310043,125.0,116.0,-48.0,0,0.439,728.0,0.0,17
1079222,8634318043,131.0,120.0,-45.0,0,0.45,728.0,0.0,17
1079223,8634326043,133.0,123.0,-42.0,0,0.442,728.0,0.0,17
1079224,8634334043,137.0,126.0,-39.0,0,0.435,728.0,0.0,17
1079225,8634342045,136.0,129.0,-36.0,0,0.427,728.0,0.0,17
1079226,8634350043,137.0,131.0,-33.0,0,0.42,728.0,0.0,17
1079227,8634358043,137.0,132.0,-30.0,0,0.413,728.0,0.0,17
1079228,8634366043,138.0,134.0,-28.0,0,0.39,728.0,0.0,17
1079229,8634374043,141.0,135.0,-26.0,0,0.386,728.0,0.0,17
1079230,8634382043,148.0,138.0,-23.0,0,0.397,728.0,0.0,17
1079231,8634390043,144.0,140.0,-21.0,0,0.375,728.0,0.0,17
1079232,8634398043,148.0,142.0,-19.0,0,0.371,728.0,0.0,17
1079233,8634406043,147.0,143.0,-17.0,0,0.366,728.0,0.0,17
1079234,8634414043,161.0,147.0,-15.0,0,0.362,728.0,0.0,17
1079235,8634422043,165.0,152.0,-12.0,0,0.374,728.0,0.0,17
1079236,8634430047,175.0,157.0,-8.0,0,0.384,728.0,0.0,17
1079237,8634438043,193.0,166.0,-3.0,0,0.41,728.0,0.0,17
1079238,8634446044,205.0,175.0,4.0,0,0.461,728.0,0.0,17
1079239,8634454047,223.0,187.0,12.0,0,0.495,728.0,0.0,17
1079240,8634462043,236.0,199.0,20.0,0,0.514,728.0,0.0,17
1079241,8634470043,255.0,212.0,31.0,0,0.584,728.0,0.0,17
1079242,8634478043,276.0,228.0,42.0,0,0.612,728.0,0.0,17
1079243,8634486043,295.0,244.0,55.0,0,0.666,728.0,0.0,17
1079244,8634494043,313.0,261.0,68.0,0,0.698,728.0,0.0,17
1079245,8634502043,324.0,276.0,82.0,0,0.739,728.0,0.0,17
1079246,8634510046,337.0,291.0,96.0,0,0.769,728.0,0.0,17
1079247,8634518043,351.0,305.0,110.0,0,0.796,728.0,0.0,17
1079248,8634526043,357.0,318.0,123.0,0,0.808,728.0,0.0,17
1079249,8634534043,362.0,329.0,135.0,0,0.814,728.0,0.0,17
1079250,8634542043,365.0,337.0,146.0,0,0.816,728.0,0.0,17
1079251,8634550043,369.0,345.0,156.0,0,0.814,728.0,0.0,17
1079252,8634558043,371.0,351.0,164.0,0,0.792,728.0,0.0,17
1079253,8634566043,364.0,354.0,170.0,0,0.764,728.0,0.0,17
1079254,8634574043,359.0,356.0,175.0,0,0.75,728.0,0.0,17
1079255,8634582043,351.0,354.0,178.0,0,0.716,728.0,0.0,17
1079256,8634590043,342.0,351.0,178.0,1,0.666,728.0,0.0,17
1079257,8634598044,333.0,347.0,177.0,0,0.679,728.0,0.0,17
1079258,8634606047,318.0,340.0,174.0,0,0.707,728.0,0.0,17
1079259,8634614046,308.0,332.0,169.0,0,0.734,728.0,0.0,17
1079260,8634622043,293.0,323.0,163.0,0,0.742,728.0,0.0,17
1079261,8634630043,276.0,311.0,155.0,0,0.762,728.0,0.0,17
1079262,8634638047,268.0,301.0,146.0,0,0.762,728.0,0.0,17
1079263,8634646043,248.0,288.0,135.0,0,0.769,728.0,0.0,17
1079264,8634654047,239.0,276.0,125.0,0,0.736,728.0,0.0,17
1079265,8634662043,220.0,263.0,113.0,0,0.735,728.0,0.0,17
1079266,8634670044,209.0,250.0,100.0,0,0.716,728.0,0.0,17
1079267,8634678047,197.0,237.0,88.0,0,0.676,728.0,0.0,17
1079268,8634686046,182.0,224.0,75.0,0,0.655,728.0,0.0,17
1079269,8634694043,175.0,212.0,62.0,0,0.622,728.0,0.0,17
1079270,8634702043,164.0,200.0,50.0,0,0.581,728.0,0.0,17
1079271,8634710043,158.0,190.0,38.0,0,0.552,728.0,0.0,17
1079272,8634718043,151.0,181.0,27.0,0,0.514,728.0,0.0,17
1079273,8634726047,147.0,172.0,17.0,0,0.48,728.0,0.0,17
1079274,8634734045,145.0,166.0,8.0,0,0.463,728.0,0.0,17
1079275,8634742043,139.0,159.0,-1.0,0,0.482,728.0,0.0,17
1079276,8634750043,134.0,153.0,-8.0,0,0.467,728.0,0.0,17
1079277,8634758043,127.0,147.0,-15.0,0,0.484,728.0,0.0,17
1079278,8634766043,124.0,141.0,-22.0,0,0.5,728.0,0.0,17
1079279,8634774043,121.0,136.0,-28.0,0,0.498,728.0,0.0,17
1079280,8634782043,117.0,132.0,-34.0,0,0.512,728.0,0.0,17
1079281,8634790043,113.0,127.0,-39.0,0,0.507,728.0,0.0,17
1079282,8634798043,114.0,124.0,-43.0,0,0.498,728.0,0.0,17
1079283,8634806043,111.0,121.0,-47.0,0,0.507,728.0,0.0,17
1079284,8634814043,111.0,118.0,-51.0,0,0.516,728.0,0.0,17
1079285,8634822043,107.0,116.0,-54.0,0,0.505,728.0,0.0,17
1079286,8634830043,102.0,112.0,-57.0,0,0.512,728.0,0.0,17
1079287,8634838043,101.0,110.0,-60.0,0,0.518,728.0,0.0,17
1079288,8634846046,100.0,107.0,-63.0,0,0.525,728.0,0.0,17
1079289,8634854046,95.0,104.0,-65.0,0,0.512,728.0,0.0,17
1079290,8634862043,90.0,101.0,-68.0,0,0.535,728.0,0.0,17
1079291,8634870043,89.0,98.0,-70.0,0,0.522,728.0,0.0,17
1079292,8634878043,88.0,96.0,-73.0,0,0.545,728.0,0.0,17
1079293,8634886046,88.0,94.0,-75.0,0,0.532,728.0,0.0,17
1079294,8634894043,85.0,92.0,-77.0,0,0.536,728.0,0.0,17
1079295,8634902045,81.0,89.0,-79.0,0,0.539,728.0,0.0,17
1079296,8634910045,83.0,88.0,-80.0,0,0.524,728.0,0.0,17
1079297,8634918046,83.0,86.0,-82.0,0,0.545,728.0,0.0,17
