host_read_start_ns,host_read_end_ns,read_duration_ms,bytes_read,decoded_message_count,sample_count,first_sample_seq,last_sample_seq,first_sample_t_us,last_sample_t_us,serial_in_waiting,protocol_ok_frames,crc_errors,format_errors,resync_count,sample_seq_gaps
81644203000000,81644734000000,531.0,4096,67,66,1077242,1077307,8618478045,8618998043,32,67,0,1,1,0
81644734000000,81645265000000,531.0,4096,67,67,1077308,1077374,8619006043,8619534043,52,134,0,1,1,0
81645281000000,81645812000000,531.0,4096,68,67,1077375,1077441,8619542043,8620070043,33,202,0,1,1,0
81645812000000,81646343000000,531.0,4096,68,67,1077442,1077508,8620078046,8620606043,88,270,0,1,1,0
81646359000000,81646875000000,516.0,4096,68,67,1077509,1077575,8620614045,8621142043,47,338,0,1,1,0
81646890000000,81647406000000,516.0,4096,68,67,1077576,1077642,8621150046,8621678043,44,406,0,1,1,0
81647421000000,81647937000000,516.0,4096,68,66,1077643,1077708,8621686047,8622206043,41,474,0,1,1,0
81647953000000,81648484000000,531.0,4096,69,68,1077709,1077776,8622214043,8622750043,115,543,0,1,1,0
81648500000000,81649031000000,531.0,4096,67,67,1077777,1077843,8622758043,8623286043,48,610,0,1,1,0
81649031000000,81649562000000,531.0,4096,69,68,1077844,1077911,8623294043,8623830043,139,679,0,1,1,0
81649578000000,81650093000000,515.0,4096,68,67,1077912,1077978,8623838043,8624366046,28,747,0,1,1,0
81650109000000,81650640000000,531.0,4096,68,67,1077979,1078045,8624374045,8624902047,43,815,0,1,1,0
81650640000000,81651171000000,531.0,4096,68,67,1078046,1078112,8624910043,8625438043,59,883,0,1,1,0
81651187000000,81651718000000,531.0,4096,68,68,1078113,1078180,8625446043,8625982043,298,951,0,1,1,0
81651750000000,81652250000000,500.0,4096,68,66,1078181,1078246,8625990043,8626510043,168,1019,0,1,1,0
81652265000000,81652781000000,516.0,4096,68,67,1078247,1078313,8626518045,8627046043,149,1087,0,1,1,0
81652796000000,81653328000000,532.0,4096,67,67,1078314,1078380,8627054043,8627582043,81,1154,0,1,1,0
81653328000000,81653859000000,531.0,4096,68,67,1078381,1078447,8627590043,8628118047,117,1222,0,1,1,0
81653875000000,81654390000000,515.0,4096,68,67,1078448,1078514,8628126044,8628654043,229,1290,0,1,1,0
81654421000000,81654921000000,500.0,4096,67,67,1078515,1078581,8628662047,8629190044,103,1357,0,1,1,0
81654937000000,81655468000000,531.0,4096,68,67,1078582,1078648,8629198043,8629726044,236,1425,0,1,1,0
81655500000000,81656000000000,500.0,4096,68,67,1078649,1078715,8629734043,8630262046,167,1493,0,1,1,0
81656015000000,81656531000000,516.0,4096,68,67,1078716,1078782,8630270046,8630798043,91,1561,0,1,1,0
81656546000000,81657062000000,516.0,4096,69,67,1078783,1078849,8630806043,8631334043,190,1630,0,1,1,0
81657093000000,81657609000000,516.0,4096,68,68,1078850,1078917,8631342043,8631878043,159,1698,0,1,1,0
81657640000000,81658156000000,516.0,4096,68,67,1078918,1078984,8631886046,8632414046,175,1766,0,1,1,0
81658171000000,81658687000000,516.0,4096,68,67,1078985,1079051,8632422043,8632950043,128,1834,0,1,1,0
81658703000000,81659234000000,531.0,4096,69,68,1079052,1079119,8632958043,8633494046,160,1903,0,1,1,0
81659250000000,81659765000000,515.0,4096,67,67,1079120,1079186,8633502043,8634030043,92,1970,0,1,1,0
81659781000000,81660312000000,531.0,4096,69,68,1079187,1079254,8634038046,8634574043,131,2039,0,1,1,0
81660328000000,81660843000000,515.0,4096,68,67,1079255,1079321,8634582043,8635110043,290,2107,0,1,1,0
81660890000000,81661390000000,500.0,4096,68,68,1079322,1079389,8635118043,8635654043,134,2175,0,1,1,0
81661406000000,81661921000000,515.0,4096,69,67,1079390,1079456,8635662043,8636190043,145,2244,0,1,1,0
81661937000000,81662468000000,531.0,4096,68,68,1079457,1079524,8636198047,8636734044,178,2312,0,1,1,0
81662484000000,81663000000000,516.0,4096,67,66,1079525,1079590,8636742047,8637262046,103,2379,0,1,1,0
81663015000000,81663531000000,516.0,4096,68,68,1079591,1079658,8637270043,8637806047,226,2447,0,1,1,0
81663562000000,81664078000000,516.0,4096,68,67,1079659,1079725,8637814043,8638342043,145,2515,0,1,1,0
81664093000000,81664609000000,516.0,4096,68,67,1079726,1079792,8638350046,8638878043,159,2583,0,1,1,0
81664640000000,81665156000000,516.0,4096,68,67,1079793,1079859,8638886047,8639414047,178,2651,0,1,1,0
81665171000000,81665687000000,516.0,4096,68,68,1079860,1079927,8639422043,8639958043,174,2719,0,1,1,0
81665718000000,81666234000000,516.0,4096,68,67,1079928,1079994,8639966046,8640494043,164,2787,0,1,1,0
81666250000000,81666765000000,515.0,4096,68,67,1079995,1080061,8640502047,8641030043,215,2855,0,1,1,0
81666796000000,81667296000000,500.0,4096,68,67,1080062,1080128,8641038043,8641566043,158,2923,0,1,1,0
81667328000000,81667828000000,500.0,4096,68,66,1080129,1080194,8641574043,8642094043,155,2991,0,1,1,0
81667859000000,81668375000000,516.0,4096,68,67,1080195,1080261,8642102047,8642630043,228,3059,0,1,1,0
81668406000000,81668906000000,500.0,4096,68,67,1080262,1080328,8642638043,8643166043,131,3127,0,1,1,0
81668921000000,81669437000000,516.0,4096,68,67,1080329,1080395,8643174043,8643702043,268,3195,0,1,1,0
81669468000000,81669984000000,516.0,4096,67,67,1080396,1080462,8643710047,8644238047,158,3262,0,1,1,0
81670000000000,81670515000000,515.0,4096,68,67,1080463,1080529,8644246043,8644774043,123,3330,0,1,1,0
81670531000000,81671046000000,515.0,4096,68,68,1080530,1080597,8644782043,8645318047,151,3398,0,1,1,0
81671078000000,81671593000000,515.0,4096,68,67,1080598,1080664,8645326043,8645854043,147,3466,0,1,1,0
81671609000000,81672125000000,516.0,4096,68,67,1080665,1080731,8645862043,8646390043,128,3534,0,1,1,0
81672140000000,81672671000000,531.0,4096,68,67,1080732,1080798,8646398043,8646926043,176,3602,0,1,1,0
81672687000000,81673203000000,516.0,4096,68,67,1080799,1080865,8646934043,8647462043,164,3670,0,1,1,0
81673218000000,81673734000000,516.0,4096,67,67,1080866,1080932,8647470043,8647998046,271,3737,0,1,1,0
81673781000000,81674281000000,500.0,4096,69,68,1080933,1081000,8648006043,8648542044,336,3806,0,1,1,0
81674328000000,81674812000000,484.0,4096,68,67,1081001,1081067,8648550043,8649078043,179,3874,0,1,1,0
81674828000000,81675359000000,531.0,4096,67,67,1081068,1081134,8649086043,8649614044,117,3941,0,1,1,0
81675375000000,81675890000000,515.0,4096,67,67,1081135,1081201,8649622043,8650150044,222,4008,0,1,1,0
81675921000000,81676421000000,500.0,4096,68,67,1081202,1081268,8650158043,8650686043,176,4076,0,1,1,0
81676453000000,81676953000000,500.0,4096,68,66,1081269,1081334,8650694043,8651214047,127,4144,0,1,1,0
81676968000000,81677484000000,516.0,4096,68,67,1081335,1081401,8651222043,8651750044,189,4212,0,1,1,0
81677515000000,81678031000000,516.0,4096,68,68,1081402,1081469,8651758043,8652294047,164,4280,0,1,1,0
81678046000000,81678562000000,516.0,4096,68,67,1081470,1081536,8652302046,8652830046,129,4348,0,1,1,0
81678578000000,81679109000000,531.0,4096,68,67,1081537,1081603,8652838047,8653366043,181,4416,0,1,1,0
81679125000000,81679640000000,515.0,4096,68,68,1081604,1081671,8653374043,8653910043,239,4484,0,1,1,0
81679671000000,81680171000000,500.0,4096,67,66,1081672,1081737,8653918043,8654438043,118,4551,0,1,1,0
81680187000000,81680703000000,516.0,4096,68,67,1081738,1081804,8654446043,8654974043,164,4619,0,1,1,0
81680734000000,81681250000000,516.0,4096,68,67,1081805,1081871,8654982043,8655510047,115,4687,0,1,1,0
81681265000000,81681781000000,516.0,4096,67,66,1081872,1081937,8655518043,8656038043,256,4754,0,1,1,0
81681812000000,81682312000000,500.0,4096,68,67,1081938,1082004,8656046047,8656574043,166,4822,0,1,1,0
81682328000000,81682843000000,515.0,4096,68,67,1082005,1082071,8656582043,8657110043,118,4890,0,1,1,0
81682859000000,81683375000000,516.0,4096,68,67,1082072,1082138,8657118043,8657646044,171,4958,0,1,1,0
81683406000000,81683921000000,515.0,4096,67,67,1082139,1082205,8657654043,8658182043,205,5025,0,1,1,0
81683937000000,81684468000000,531.0,4096,69,68,1082206,1082273,8658190043,8658726047,172,5094,0,1,1,0
81684484000000,81685000000000,516.0,4096,68,67,1082274,1082340,8658734045,8659262043,152,5162,0,1,1,0
81685015000000,81685531000000,516.0,4096,68,67,1082341,1082407,8659270043,8659798046,177,5230,0,1,1,0
81685562000000,81686078000000,516.0,4096,68,68,1082408,1082475,8659806043,8660342045,198,5298,0,1,1,0
81686109000000,81686609000000,500.0,4096,68,67,1082476,1082542,8660350045,8660878043,145,5366,0,1,1,0
81686640000000,81687156000000,516.0,4096,69,67,1082543,1082609,8660886043,8661414043,109,5435,0,1,1,0
81687171000000,81687687000000,516.0,4096,68,66,1082610,1082675,8661422043,8661942043,197,5503,0,1,1,0
81687703000000,81688218000000,515.0,4096,68,68,1082676,1082743,8661950043,8662486045,280,5571,0,1,1,0
81688265000000,81688750000000,485.0,4096,68,67,1082744,1082810,8662494045,8663022046,152,5639,0,1,1,0
81688781000000,81689296000000,515.0,4096,67,66,1082811,1082876,8663030045,8663550043,229,5706,0,1,1,0
81689312000000,81689828000000,516.0,4096,68,68,1082877,1082944,8663558043,8664094046,267,5774,0,1,1,0
81689859000000,81690359000000,500.0,4096,67,67,1082945,1083011,8664102043,8664630043,124,5841,0,1,1,0
81690390000000,81690906000000,516.0,4096,68,67,1083012,1083078,8664638043,8665166046,206,5909,0,1,1,0
81690921000000,81691437000000,516.0,4096,67,66,1083079,1083144,8665174043,8665694043,141,5976,0,1,1,0
81691453000000,81691968000000,515.0,4096,68,67,1083145,1083211,8665702043,8666230043,229,6044,0,1,1,0
81692000000000,81692500000000,500.0,4096,68,67,1083212,1083278,8666238043,8666766043,254,6112,0,1,1,0
81692531000000,81693031000000,500.0,4096,68,67,1083279,1083345,8666774047,8667302043,122,6180,0,1,1,0
81693046000000,81693562000000,516.0,4096,67,66,1083346,1083411,8667310043,8667830047,134,6247,0,1,1,0
81693593000000,81694109000000,516.0,4096,67,67,1083412,1083478,8667838047,8668366043,203,6314,0,1,1,0
81694125000000,81694640000000,515.0,4096,68,67,1083479,1083545,8668374043,8668902043,780,6382,0,1,1,0
81694734000000,81695171000000,437.0,4096,68,67,1083546,1083612,8668910047,8669438043,154,6450,0,1,1,0
81695187000000,81695703000000,516.0,4096,67,66,1083613,1083678,8669446043,8669966043,156,6517,0,1,1,0
81695718000000,81696250000000,532.0,4096,68,68,1083679,1083746,8669974043,8670510045,254,6585,0,1,1,0
81696281000000,81696781000000,500.0,4096,68,67,1083747,1083813,8670518046,8671046046,239,6653,0,1,1,0
81696812000000,81697312000000,500.0,4096,68,66,1083814,1083879,8671054043,8671574043,236,6721,0,1,1,0
81697343000000,81697843000000,500.0,4096,68,67,1083880,1083946,8671582044,8672110047,190,6789,0,1,1,0
81697875000000,81698390000000,515.0,4096,68,68,1083947,1084014,8672118047,8672654043,162,6857,0,1,1,0
81698406000000,81698921000000,515.0,4096,68,67,1084015,1084081,8672662043,8673190043,151,6925,0,1,1,0
81698953000000,81699468000000,515.0,4096,68,67,1084082,1084148,8673198045,8673726047,165,6993,0,1,1,0
81699484000000,81700000000000,516.0,4096,67,66,1084149,1084214,8673734047,8674254043,158,7060,0,1,1,0
81700015000000,81700531000000,516.0,4096,68,68,1084215,1084282,8674262043,8674798043,161,7128,0,1,1,0
81700562000000,81701078000000,516.0,4096,68,67,1084283,1084349,8674806043,8675334044,145,7196,0,1,1,0
81701093000000,81701609000000,516.0,4096,68,67,1084350,1084416,8675342045,8675870043,181,7264,0,1,1,0
81701625000000,81702140000000,515.0,4096,68,66,1084417,1084482,8675878044,8676398045,200,7332,0,1,1,0
81702156000000,81702671000000,515.0,4096,68,68,1084483,1084550,8676406045,8676942045,160,7400,0,1,1,0
81702703000000,81703218000000,515.0,4096,68,67,1084551,1084617,8676950043,8677478043,190,7468,0,1,1,0
81703234000000,81703750000000,516.0,4096,68,67,1084618,1084684,8677486043,8678014043,122,7536,0,1,1,0
81703765000000,81704296000000,531.0,4096,68,68,1084685,1084752,8678022046,8678558047,347,7604,0,1,1,0
81704328000000,81704828000000,500.0,4096,68,67,1084753,1084819,8678566046,8679094043,279,7672,0,1,1,0
81704875000000,81705359000000,484.0,4096,68,67,1084820,1084886,8679102047,8679630043,148,7740,0,1,1,0
81705390000000,81705906000000,516.0,4096,68,67,1084887,1084953,8679638043,8680166043,208,7808,0,1,1,0
81705937000000,81706453000000,516.0,4096,68,68,1084954,1085021,8680174043,8680710043,210,7876,0,1,1,0
81706468000000,81706984000000,516.0,4096,68,66,1085022,1085087,8680718046,8681238047,143,7944,0,1,1,0
81707000000000,81707515000000,515.0,4096,69,68,1085088,1085155,8681246043,8681782047,242,8013,0,1,1,0
81707546000000,81708046000000,500.0,4096,68,67,1085156,1085222,8681790043,8682318043,177,8081,0,1,1,0
81708078000000,81708593000000,515.0,4096,68,67,1085223,1085289,8682326043,8682854043,140,8149,0,1,1,0
81708609000000,81709125000000,516.0,4096,68,67,1085290,1085356,8682862045,8683390043,256,8217,0,1,1,0
81709156000000,81709656000000,500.0,4096,68,67,1085357,1085423,8683398043,8683926043,148,8285,0,1,1,0
81709687000000,81710203000000,516.0,4096,69,68,1085424,1085491,8683934043,8684470045,212,8354,0,1,1,0
81710234000000,81710750000000,516.0,4096,68,68,1085492,1085559,8684478044,8685014043,176,8422,0,1,1,0
81710765000000,81711281000000,516.0,4096,68,67,1085560,1085626,8685022043,8685550043,210,8490,0,1,1,0
81711312000000,81711828000000,516.0,4096,68,67,1085627,1085693,8685558043,8686086046,302,8558,0,1,1,0
81711859000000,81712359000000,500.0,4096,68,67,1085694,1085760,8686094043,8686622043,270,8626,0,1,1,0
81712390000000,81712890000000,500.0,4096,68,67,1085761,1085827,8686630043,8687158043,132,8694,0,1,1,0
81712921000000,81713437000000,516.0,4096,68,67,1085828,1085894,8687166043,8687694043,218,8762,0,1,1,0
81713468000000,81713968000000,500.0,4096,68,67,1085895,1085961,8687702043,8688230043,252,8830,0,1,1,0
81714000000000,81714515000000,515.0,4096,69,68,1085962,1086029,8688238043,8688774043,975,8899,0,1,1,0
81714640000000,81715046000000,406.0,4096,67,67,1086030,1086096,8688782043,8689310043,151,8966,0,1,1,0
81715062000000,81715578000000,516.0,4096,68,67,1086097,1086163,8689318043,8689846043,224,9034,0,1,1,0
81715609000000,81716125000000,516.0,4096,68,67,1086164,1086230,8689854043,8690382043,136,9102,0,1,1,0
81716140000000,81716656000000,516.0,4096,68,68,1086231,1086298,8690390043,8690926043,166,9170,0,1,1,0
81716687000000,81717187000000,500.0,4096,68,66,1086299,1086364,8690934043,8691454043,170,9238,0,1,1,0
81717218000000,81717734000000,516.0,4096,68,68,1086365,1086432,8691462043,8691998046,208,9306,0,1,1,0
81717765000000,81718281000000,516.0,4096,68,67,1086433,1086499,8692006043,8692534043,195,9374,0,1,1,0
81718296000000,81718812000000,516.0,4096,68,68,1086500,1086567,8692542043,8693078043,192,9442,0,1,1,0
81718843000000,81719359000000,516.0,4096,68,67,1086568,1086634,8693086045,8693614043,180,9510,0,1,1,0
81719375000000,81719890000000,515.0,4096,68,67,1086635,1086701,8693622043,8694150043,215,9578,0,1,1,0
81719921000000,81720421000000,500.0,4096,69,68,1086702,1086769,8694158047,8694694046,296,9647,0,1,1,0
81720468000000,81720968000000,500.0,4096,67,67,1086770,1086836,8694702045,8695230047,177,9714,0,1,1,0
81720984000000,81721500000000,516.0,4096,68,67,1086837,1086903,8695238045,8695766043,193,9782,0,1,1,0
81721531000000,81722031000000,500.0,4096,69,67,1086904,1086970,8695774043,8696302046,156,9851,0,1,1,0
81722062000000,81722578000000,516.0,4096,68,67,1086971,1087037,8696310047,8696838047,170,9919,0,1,1,0
81722593000000,81723109000000,516.0,4096,67,67,1087038,1087104,8696846043,8697374043,189,9986,0,1,1,0
81723140000000,81723656000000,516.0,4096,68,67,1087105,1087171,8697382043,8697910043,193,10054,0,1,1,0
81723671000000,81724187000000,516.0,4096,68,67,1087172,1087238,8697918043,8698446047,130,10122,0,1,1,0
81724203000000,81724718000000,515.0,4096,69,68,1087239,1087306,8698454043,8698990043,201,10191,0,1,1,0
81724750000000,81725265000000,515.0,4096,67,67,1087307,1087373,8698998043,8699526043,262,10258,0,1,1,0
81725296000000,81725796000000,500.0,4096,68,67,1087374,1087440,8699534043,8700062044,165,10326,0,1,1,0
81725828000000,81726343000000,515.0,4096,68,67,1087441,1087507,8700070047,8700598043,185,10394,0,1,1,0
81726359000000,81726875000000,516.0,4096,68,68,1087508,1087575,8700606043,8701142043,342,10462,0,1,1,0
81726921000000,81727406000000,485.0,4096,68,66,1087576,1087641,8701150043,8701670045,148,10530,0,1,1,0
81727421000000,81727937000000,516.0,4096,68,66,1087642,1087707,8701678047,8702198047,195,10598,0,1,1,0
81727968000000,81728468000000,500.0,4096,68,67,1087708,1087774,8702206045,8702734043,165,10666,0,1,1,0
81728500000000,81729015000000,515.0,4096,68,68,1087775,1087842,8702742043,8703278045,195,10734,0,1,1,0
81729046000000,81729546000000,500.0,4096,68,67,1087843,1087909,8703286047,8703814043,234,10802,0,1,1,0
81729578000000,81730093000000,515.0,4096,68,67,1087910,1087976,8703822047,8704350043,142,10870,0,1,1,0
81730109000000,81730625000000,516.0,4096,68,67,1087977,1088043,8704358043,8704886043,165,10938,0,1,1,0
81730640000000,81731156000000,516.0,4096,67,67,1088044,1088110,8704894043,8705422043,213,11005,0,1,1,0
81731187000000,81731703000000,516.0,4096,69,68,1088111,1088178,8705430045,8705966043,147,11074,0,1,1,0
81731718000000,81732234000000,516.0,4096,68,66,1088179,1088244,8705974045,8706494043,184,11142,0,1,1,0
81732265000000,81732781000000,516.0,4096,69,68,1088245,1088312,8706502043,8707038047,227,11211,0,1,1,0
81732796000000,81733312000000,516.0,4096,67,67,1088313,1088379,8707046047,8707574043,130,11278,0,1,1,0
81733328000000,81733859000000,531.0,4096,69,68,1088380,1088447,8707582043,8708118043,229,11347,0,1,1,0
81733875000000,81734390000000,515.0,4096,68,67,1088448,1088514,8708126043,8708654045,282,11415,0,1,1,0
81734421000000,81734921000000,500.0,4096,68,67,1088515,1088581,8708662045,8709190047,221,11483,0,1,1,0
81734953000000,81735468000000,515.0,4096,68,68,1088582,1088649,8709198045,8709734044,1042,11551,0,1,1,0
81735609000000,81736000000000,391.0,4096,68,67,1088650,1088716,8709742043,8710270043,205,11619,0,1,1,0
81736031000000,81736546000000,515.0,4096,68,67,1088717,1088783,8710278043,8710806046,148,11687,0,1,1,0
81736562000000,81737078000000,516.0,4096,69,67,1088784,1088850,8710814043,8711342046,187,11756,0,1,1,0
81737109000000,81737609000000,500.0,4096,67,67,1088851,1088917,8711350046,8711878043,190,11823,0,1,1,0
81737640000000,81738156000000,516.0,4096,69,68,1088918,1088985,8711886043,8712422043,443,11892,0,1,1,0
81738218000000,81738703000000,485.0,4096,67,67,1088986,1089052,8712430043,8712958043,330,11959,0,1,1,0
81738734000000,81739234000000,500.0,4096,68,67,1089053,1089119,8712966043,8713494043,296,12027,0,1,1,0
81739265000000,81739781000000,516.0,4096,69,68,1089120,1089187,8713502043,8714038043,167,12096,0,1,1,0
81739796000000,81740312000000,516.0,4096,67,66,1089188,1089253,8714046043,8714566043,184,12163,0,1,1,0
81740328000000,81740843000000,515.0,4096,69,68,1089254,1089321,8714574043,8715110043,164,12232,0,1,1,0
81740875000000,81741390000000,515.0,4096,68,68,1089322,1089389,8715118043,8715654043,166,12300,0,1,1,0
81741406000000,81741921000000,515.0,4096,67,66,1089390,1089455,8715662043,8716182043,271,12367,0,1,1,0
81741953000000,81742453000000,500.0,4096,69,67,1089456,1089522,8716190043,8716718043,364,12436,0,1,1,0
81742500000000,81743000000000,500.0,4096,68,68,1089523,1089590,8716726043,8717262046,133,12504,0,1,1,0
81743015000000,81743531000000,516.0,4096,68,67,1089591,1089657,8717270047,8717798045,221,12572,0,1,1,0
81743562000000,81744078000000,516.0,4096,68,67,1089658,1089724,8717806043,8718334043,206,12640,0,1,1,0
81744093000000,81744609000000,516.0,4096,68,68,1089725,1089792,8718342043,8718878043,185,12708,0,1,1,0
81744640000000,81745156000000,516.0,4096,68,67,1089793,1089859,8718886045,8719414043,215,12776,0,1,1,0
81745171000000,81745703000000,532.0,4096,68,68,1089860,1089927,8719422043,8719958043,232,12844,0,1,1,0
81745734000000,81746234000000,500.0,4096,68,67,1089928,1089994,8719966043,8720494046,124,12912,0,1,1,0
81746250000000,81746765000000,515.0,4096,68,67,1089995,1090061,8720502044,8721030045,218,12980,0,1,1,0
81746796000000,81747312000000,516.0,4096,69,67,1090062,1090128,8721038043,8721566043,255,13049,0,1,1,0
81747343000000,81747843000000,500.0,4096,69,68,1090129,1090196,8721574043,8722110046,177,13118,0,1,1,0
81747875000000,81748375000000,500.0,4096,68,67,1090197,1090263,8722118046,8722646046,236,13186,0,1,1,0
81748406000000,81748921000000,515.0,4096,68,67,1090264,1090330,8722654047,8723182043,265,13254,0,1,1,0
81748953000000,81749468000000,515.0,4096,68,68,1090331,1090398,8723190043,8723726043,251,13322,0,1,1,0
81749500000000,81750000000000,500.0,4096,68,67,1090399,1090465,8723734045,8724262046,187,13390,0,1,1,0
81750015000000,81750531000000,516.0,4096,68,67,1090466,1090532,8724270044,8724798046,190,13458,0,1,1,0
81750562000000,81751078000000,516.0,4096,68,68,1090533,1090600,8724806043,8725342043,162,13526,0,1,1,0
81751093000000,81751625000000,532.0,4096,68,68,1090601,1090668,8725350043,8725886043,225,13594,0,1,1,0
81751656000000,81752156000000,500.0,4096,69,67,1090669,1090735,8725894047,8726422043,200,13663,0,1,1,0
81752187000000,81752687000000,500.0,4096,68,67,1090736,1090802,8726430047,8726958043,127,13731,0,1,1,0
81752718000000,81753234000000,516.0,4096,68,67,1090803,1090869,8726966043,8727494044,194,13799,0,1,1,0
81753265000000,81753781000000,516.0,4096,68,68,1090870,1090937,8727502043,8728038043,203,13867,0,1,1,0
81753796000000,81754312000000,516.0,4096,68,67,1090938,1091004,8728046043,8728574047,208,13935,0,1,1,0
81754343000000,81754843000000,500.0,4096,68,67,1091005,1091071,8728582047,8729110044,162,14003,0,1,1,0
81754875000000,81755390000000,515.0,4096,68,68,1091072,1091139,8729118043,8729654044,192,14071,0,1,1,0
81755421000000,81755937000000,516.0,4096,68,68,1091140,1091207,8729662043,8730198043,1110,14139,0,1,1,0
81756078000000,81756468000000,390.0,4096,68,67,1091208,1091274,8730206043,8730734043,344,14207,0,1,1,0
81756515000000,81757000000000,485.0,4096,69,67,1091275,1091341,8730742043,8731270043,232,14276,0,1,1,0
81757031000000,81757546000000,515.0,4096,68,67,1091342,1091408,8731278043,8731806043,127,14344,0,1,1,0
81757562000000,81758078000000,516.0,4096,67,67,1091409,1091475,8731814046,8732342043,183,14411,0,1,1,0
81758109000000,81758625000000,516.0,4096,69,68,1091476,1091543,8732350047,8732886043,286,14480,0,1,1,0
81758656000000,81759156000000,500.0,4096,68,67,1091544,1091610,8732894047,8733422046,122,14548,0,1,1,0
81759171000000,81759703000000,532.0,4096,68,68,1091611,1091678,8733430046,8733966045,266,14616,0,1,1,0
81759734000000,81760250000000,516.0,4096,68,68,1091679,1091746,8733974043,8734510043,193,14684,0,1,1,0
81760265000000,81760781000000,516.0,4096,68,67,1091747,1091813,8734518045,8735046043,217,14752,0,1,1,0
81760812000000,81761312000000,500.0,4096,68,67,1091814,1091880,8735054043,8735582043,222,14820,0,1,1,0
81761343000000,81761859000000,516.0,4096,68,67,1091881,1091947,8735590047,8736118043,226,14888,0,1,1,0
81761890000000,81762390000000,500.0,4096,69,68,1091948,1092015,8736126043,8736662045,260,14957,0,1,1,0
81762437000000,81762937000000,500.0,4096,68,67,1092016,1092082,8736670046,8737198047,194,15025,0,1,1,0
81762953000000,81763468000000,515.0,4096,68,67,1092083,1092149,8737206043,8737734043,251,15093,0,1,1,0
81763500000000,81764015000000,515.0,4096,68,68,1092150,1092217,8737742043,8738278045,183,15161,0,1,1,0
81764046000000,81764546000000,500.0,4096,68,67,1092218,1092284,8738286046,8738814043,223,15229,0,1,1,0
81764578000000,81765093000000,515.0,4096,69,68,1092285,1092352,8738822043,8739358044,208,15298,0,1,1,0
81765125000000,81765625000000,500.0,4096,67,66,1092353,1092418,8739366047,8739886044,182,15365,0,1,1,0
81765656000000,81766171000000,515.0,4096,69,69,1092419,1092487,8739894047,8740438043,274,15434,0,1,1,0
81766203000000,81766703000000,500.0,4096,68,67,1092488,1092554,8740446043,8740974043,202,15502,0,1,1,0
81766734000000,81767234000000,500.0,4096,69,67,1092555,1092621,8740982043,8741510043,183,15571,0,1,1,0
81767265000000,81767781000000,516.0,4096,68,66,1092622,1092687,8741518043,8742038043,197,15639,0,1,1,0
81767796000000,81768312000000,516.0,4096,68,68,1092688,1092755,8742046046,8742582043,127,15707,0,1,1,0
81768343000000,81768859000000,516.0,4096,69,68,1092756,1092823,8742590043,8743126046,181,15776,0,1,1,0
81768890000000,81769390000000,500.0,4096,68,67,1092824,1092890,8743134046,8743662043,205,15844,0,1,1,0
81769421000000,81769937000000,516.0,4096,67,67,1092891,1092957,8743670047,8744198045,128,15911,0,1,1,0
81769953000000,81770484000000,531.0,4096,69,69,1092958,1093026,8744206044,8744750043,263,15980,0,1,1,0
81770515000000,81771015000000,500.0,4096,68,67,1093027,1093093,8744758043,8745286043,169,16048,0,1,1,0
81771046000000,81771562000000,516.0,4096,68,67,1093094,1093160,8745294043,8745822047,134,16116,0,1,1,0
81771578000000,81772093000000,515.0,4096,69,67,1093161,1093227,8745830043,8746358046,166,16185,0,1,1,0
81772109000000,81772640000000,531.0,4096,67,67,1093228,1093294,8746366045,8746894043,187,16252,0,1,1,0
81772656000000,81773171000000,515.0,4096,69,68,1093295,1093362,8746902043,8747438043,136,16321,0,1,1,0
81773187000000,81773718000000,531.0,4096,68,67,1093363,1093429,8747446043,8747974043,197,16389,0,1,1,0
81773734000000,81774250000000,516.0,4096,68,68,1093430,1093497,8747982047,8748518043,155,16457,0,1,1,0
81774281000000,81774796000000,515.0,4096,68,67,1093498,1093564,8748526043,8749054043,170,16525,0,1,1,0
81774812000000,81775328000000,516.0,4096,69,68,1093565,1093632,8749062043,8749598043,224,16594,0,1,1,0
81775359000000,81775875000000,516.0,4096,68,68,1093633,1093700,8749606046,8750142044,175,16662,0,1,1,0
81775906000000,81776406000000,500.0,4096,68,67,1093701,1093767,8750150045,8750678043,170,16730,0,1,1,0
81776437000000,81776953000000,516.0,4096,69,68,1093768,1093835,8750686043,8751222043,1091,16799,0,1,1,0
81777093000000,81777484000000,391.0,4096,67,66,1093836,1093901,8751230043,8751750043,213,16866,0,1,1,0
81777515000000,81778031000000,516.0,4096,69,68,1093902,1093969,8751758043,8752294043,329,16935,0,1,1,0
81778078000000,81778562000000,484.0,4096,68,67,1093970,1094036,8752302043,8752830047,143,17003,0,1,1,0
81778593000000,81779109000000,516.0,4096,68,68,1094037,1094104,8752838045,8753374043,261,17071,0,1,1,0
81779140000000,81779656000000,516.0,4096,68,67,1094105,1094171,8753382043,8753910043,208,17139,0,1,1,0
81779671000000,81780187000000,516.0,4096,68,67,1094172,1094238,8753918043,8754446046,243,17207,0,1,1,0
81780218000000,81780718000000,500.0,4096,68,68,1094239,1094306,8754454047,8754990043,209,17275,0,1,1,0
81780750000000,81781265000000,515.0,4096,68,67,1094307,1094373,8754998043,8755526043,123,17343,0,1,1,0
81781281000000,81781812000000,531.0,4096,69,68,1094374,1094441,8755534043,8756070047,186,17412,0,1,1,0
81781828000000,81782343000000,515.0,4096,68,67,1094442,1094508,8756078046,8756606043,202,17480,0,1,1,0
81782375000000,81782875000000,500.0,4096,68,67,1094509,1094575,8756614043,8757142043,184,17548,0,1,1,0
81782906000000,81783421000000,515.0,4096,69,68,1094576,1094643,8757150043,8757686045,212,17617,0,1,1,0
81783453000000,81783953000000,500.0,4096,68,67,1094644,1094710,8757694047,8758222046,186,17685,0,1,1,0
81783984000000,81784500000000,516.0,4096,68,67,1094711,1094777,8758230043,8758758047,197,17753,0,1,1,0
81784515000000,81785046000000,531.0,4096,69,69,1094778,1094846,8758766045,8759310043,332,17822,0,1,1,0
81785093000000,81785578000000,485.0,4096,67,66,1094847,1094912,8759318045,8759838043,274,17889,0,1,1,0
81785609000000,81786125000000,516.0,4096,69,68,1094913,1094980,8759846043,8760382043,129,17958,0,1,1,0
81786140000000,81786656000000,516.0,4096,68,67,1094981,1095047,8760390045,8760918043,199,18026,0,1,1,0
81786687000000,81787203000000,516.0,4096,69,68,1095048,1095115,8760926043,8761462043,290,18095,0,1,1,0
81787234000000,81787734000000,500.0,4096,68,66,1095116,1095181,8761470044,8761990044,127,18163,0,1,1,0
81787750000000,81788265000000,515.0,4096,69,68,1095182,1095249,8761998044,8762534043,231,18232,0,1,1,0
81788296000000,81788812000000,516.0,4096,68,68,1095250,1095317,8762542043,8763078043,204,18300,0,1,1,0
81788843000000,81789359000000,516.0,4096,68,67,1095318,1095384,8763086044,8763614043,176,18368,0,1,1,0
81789375000000,81789890000000,515.0,4096,68,68,1095385,1095452,8763622045,8764158043,212,18436,0,1,1,0
81789921000000,81790437000000,516.0,4096,68,67,1095453,1095519,8764166043,8764694043,203,18504,0,1,1,0
81790453000000,81790968000000,515.0,4096,69,68,1095520,1095587,8764702047,8765238047,164,18573,0,1,1,0
81791000000000,81791515000000,515.0,4096,68,68,1095588,1095655,8765246045,8765782044,265,18641,0,1,1,0
81791546000000,81792046000000,500.0,4096,68,66,1095656,1095721,8765790043,8766310043,249,18709,0,1,1,0
81792078000000,81792593000000,515.0,4096,69,68,1095722,1095789,8766318043,8766854043,136,18778,0,1,1,0
81792609000000,81793140000000,531.0,4096,68,68,1095790,1095857,8766862043,8767398046,247,18846,0,1,1,0
81793156000000,81793671000000,515.0,4096,68,67,1095858,1095924,8767406046,8767934043,211,18914,0,1,1,0
81793703000000,81794218000000,515.0,4096,69,68,1095925,1095992,8767942045,8768478043,138,18983,0,1,1,0
81794234000000,81794750000000,516.0,4096,68,67,1095993,1096059,8768486043,8769014043,228,19051,0,1,1,0
81794781000000,81795296000000,515.0,4096,68,68,1096060,1096127,8769022046,8769558043,242,19119,0,1,1,0
81795328000000,81795828000000,500.0,4096,68,67,1096128,1096194,8769566044,8770094043,156,19187,0,1,1,0
81795859000000,81796375000000,516.0,4096,69,68,1096195,1096262,8770102046,8770638047,268,19256,0,1,1,0
81796406000000,81796906000000,500.0,4096,68,67,1096263,1096329,8770646043,8771174043,1064,19324,0,1,1,0
81797046000000,81797453000000,407.0,4096,69,68,1096330,1096397,8771182045,8771718043,162,19393,0,1,1,0
81797468000000,81797984000000,516.0,4096,68,67,1096398,1096464,8771726047,8772254044,216,19461,0,1,1,0
81798015000000,81798531000000,516.0,4096,68,67,1096465,1096531,8772262043,8772790043,240,19529,0,1,1,0
81798562000000,81799062000000,500.0,4096,69,68,1096532,1096599,8772798043,8773334043,330,19598,0,1,1,0
81799109000000,81799609000000,500.0,4096,67,67,1096600,1096666,8773342043,8773870043,274,19665,0,1,1,0
81799640000000,81800156000000,516.0,4096,69,68,1096667,1096734,8773878045,8774414046,241,19734,0,1,1,0
81800171000000,81800687000000,516.0,4096,68,67,1096735,1096801,8774422047,8774950043,145,19802,0,1,1,0
81800703000000,81801234000000,531.0,4096,68,68,1096802,1096869,8774958043,8775494043,219,19870,0,1,1,0
81801250000000,81801765000000,515.0,4096,68,67,1096870,1096936,8775502043,8776030043,236,19938,0,1,1,0
81801796000000,81802296000000,500.0,4096,69,67,1096937,1097003,8776038047,8776566043,163,20007,0,1,1,0
81802328000000,81802843000000,515.0,4096,68,67,1097004,1097070,8776574043,8777102043,289,20075,0,1,1,0
81802875000000,81803375000000,500.0,4096,68,67,1097071,1097137,8777110047,8777638043,197,20143,0,1,1,0
81803406000000,81803921000000,515.0,4096,68,68,1097138,1097205,8777646043,8778182043,161,20211,0,1,1,0
81803937000000,81804453000000,516.0,4096,68,67,1097206,1097272,8778190044,8778718044,235,20279,0,1,1,0
81804484000000,81805000000000,516.0,4096,68,67,1097273,1097339,8778726046,8779254043,224,20347,0,1,1,0
81805015000000,81805531000000,516.0,4096,68,68,1097340,1097407,8779262043,8779798043,126,20415,0,1,1,0
81805546000000,81806078000000,532.0,4096,68,67,1097408,1097474,8779806043,8780334043,313,20483,0,1,1,0
81806109000000,81806609000000,500.0,4096,68,67,1097475,1097541,8780342043,8780870043,222,20551,0,1,1,0
81806640000000,81807140000000,500.0,4096,69,67,1097542,1097608,8780878043,8781406047,124,20620,0,1,1,0
81807156000000,81807687000000,531.0,4096,68,67,1097609,1097675,8781414043,8781942043,262,20688,0,1,1,0
81807703000000,81808218000000,515.0,4096,68,67,1097676,1097742,8781950043,8782478043,295,20756,0,1,1,0
81808250000000,81808750000000,500.0,4096,68,67,1097743,1097809,8782486043,8783014043,184,20824,0,1,1,0
81808781000000,81809296000000,515.0,4096,68,68,1097810,1097877,8783022043,8783558043,292,20892,0,1,1,0
81809328000000,81809828000000,500.0,4096,68,67,1097878,1097944,8783566043,8784094043,249,20960,0,1,1,0
81809859000000,81810375000000,516.0,4096,69,68,1097945,1098012,8784102043,8784638044,124,21029,0,1,1,0
81810390000000,81810906000000,516.0,4096,68,67,1098013,1098079,8784646047,8785174043,233,21097,0,1,1,0
81810937000000,81811453000000,516.0,4096,68,67,1098080,1098146,8785182043,8785710043,214,21165,0,1,1,0
81811468000000,81811984000000,516.0,4096,68,67,1098147,1098213,8785718043,8786246043,162,21233,0,1,1,0
81812000000000,81812515000000,515.0,4096,68,67,1098214,1098280,8786254046,8786782045,189,21301,0,1,1,0
81812546000000,81813062000000,516.0,4096,69,68,1098281,1098348,8786790043,8787326043,196,21370,0,1,1,0
81813093000000,81813609000000,516.0,4096,68,68,1098349,1098416,8787334043,8787870043,251,21438,0,1,1,0
81813640000000,81814140000000,500.0,4096,68,67,1098417,1098483,8787878043,8788406043,219,21506,0,1,1,0
81814171000000,81814671000000,500.0,4096,68,67,1098484,1098550,8788414043,8788942043,244,21574,0,1,1,0
81814718000000,81815218000000,500.0,4096,69,68,1098551,1098618,8788950043,8789486047,173,21643,0,1,1,0
81815250000000,81815765000000,515.0,4096,68,68,1098619,1098686,8789494045,8790030043,258,21711,0,1,1,0
81815796000000,81816296000000,500.0,4096,68,67,1098687,1098753,8790038043,8790566044,206,21779,0,1,1,0
81816328000000,81816843000000,515.0,4096,68,67,1098754,1098820,8790574043,8791102047,147,21847,0,1,1,0
81816859000000,81817375000000,516.0,4096,69,67,1098821,1098887,8791110043,8791638043,1296,21916,0,1,1,0
81817546000000,81817906000000,360.0,4096,68,68,1098888,1098955,8791646043,8792182043,181,21984,0,1,1,0
81817937000000,81818453000000,516.0,4096,68,67,1098956,1099022,8792190043,8792718043,185,22052,0,1,1,0
81818484000000,81819000000000,516.0,4096,68,67,1099023,1099089,8792726046,8793254043,194,22120,0,1,1,0
81819015000000,81819531000000,516.0,4096,69,68,1099090,1099157,8793262043,8793798043,211,22189,0,1,1,0
81819562000000,81820078000000,516.0,4096,68,68,1099158,1099225,8793806043,8794342043,294,22257,0,1,1,0
81820109000000,81820609000000,500.0,4096,68,67,1099226,1099292,8794350043,8794878043,239,22325,0,1,1,0
81820640000000,81821171000000,531.0,4096,68,67,1099293,1099359,8794886043,8795414043,407,22393,0,1,1,0
81821203000000,81821703000000,500.0,4096,68,68,1099360,1099427,8795422043,8795958045,237,22461,0,1,1,0
81821734000000,81822234000000,500.0,4096,69,68,1099428,1099495,8795966046,8796502045,263,22530,0,1,1,0
81822265000000,81822765000000,500.0,4096,68,67,1099496,1099562,8796510043,8797038043,176,22598,0,1,1,0
81822796000000,81823312000000,516.0,4096,68,67,1099563,1099629,8797046047,8797574043,208,22666,0,1,1,0
81823343000000,81823843000000,500.0,4096,68,67,1099630,1099696,8797582046,8798110045,289,22734,0,1,1,0
81823890000000,81824390000000,500.0,4096,68,68,1099697,1099764,8798118043,8798654044,186,22802,0,1,1,0
81824421000000,81824937000000,516.0,4096,68,67,1099765,1099831,8798662044,8799190047,187,22870,0,1,1,0
81824953000000,81825468000000,515.0,4096,69,68,1099832,1099899,8799198043,8799734045,267,22939,0,1,1,0
81825500000000,81826000000000,500.0,4096,68,67,1099900,1099966,8799742043,8800270043,160,23007,0,1,1,0
81826031000000,81826546000000,515.0,4096,68,68,1099967,1100034,8800278043,8800814043,263,23075,0,1,1,0
81826593000000,81827078000000,485.0,4096,69,67,1100035,1100101,8800822043,8801350043,190,23144,0,1,1,0
81827109000000,81827609000000,500.0,4096,68,66,1100102,1100167,8801358043,8801878043,170,23212,0,1,1,0
81827640000000,81828156000000,516.0,4096,69,68,1100168,1100235,8801886043,8802422043,289,23281,0,1,1,0
81828203000000,81828703000000,500.0,4096,68,68,1100236,1100303,8802430043,8802966043,206,23349,0,1,1,0
81828734000000,81829234000000,500.0,4096,68,67,1100304,1100370,8802974043,8803502043,208,23417,0,1,1,0
81829265000000,81829781000000,516.0,4096,68,67,1100371,1100437,8803510043,8804038043,265,23485,0,1,1,0
81829812000000,81830312000000,500.0,4096,68,68,1100438,1100505,8804046043,8804582046,261,23553,0,1,1,0
81830343000000,81830859000000,516.0,4096,68,67,1100506,1100572,8804590046,8805118046,184,23621,0,1,1,0
81830875000000,81831390000000,515.0,4096,68,68,1100573,1100640,8805126043,8805662043,220,23689,0,1,1,0
81831421000000,81831937000000,516.0,4096,68,67,1100641,1100707,8805670043,8806198043,225,23757,0,1,1,0
81831953000000,81832468000000,515.0,4096,69,67,1100708,1100774,8806206043,8806734043,164,23826,0,1,1,0
81832500000000,81833015000000,515.0,4096,67,67,1100775,1100841,8806742043,8807270043,250,23893,0,1,1,0
81833046000000,81833546000000,500.0,4096,69,68,1100842,1100909,8807278043,8807814043,233,23962,0,1,1,0
81833578000000,81834078000000,500.0,4096,68,67,1100910,1100976,8807822043,8808350047,150,24030,0,1,1,0
81834109000000,81834625000000,516.0,4096,68,68,1100977,1101044,8808358046,8808894043,301,24098,0,1,1,0
81834671000000,81835171000000,500.0,4096,68,67,1101045,1101111,8808902043,8809430046,274,24166,0,1,1,0
81835203000000,81835718000000,515.0,4096,68,68,1101112,1101179,8809438043,8809974043,160,24234,0,1,1,0
81835734000000,81836250000000,516.0,4096,68,67,1101180,1101246,8809982043,8810510045,223,24302,0,1,1,0
81836281000000,81836796000000,515.0,4096,68,68,1101247,1101314,8810518043,8811054043,288,24370,0,1,1,0
81836828000000,81837328000000,500.0,4096,69,67,1101315,1101381,8811062043,8811590044,161,24439,0,1,1,0
81837343000000,81837859000000,516.0,4096,68,67,1101382,1101448,8811598045,8812126043,1213,24507,0,1,1,0
81838031000000,81838406000000,375.0,4096,68,67,1101449,1101515,8812134043,8812662043,172,24575,0,1,1,0
81838421000000,81838953000000,532.0,4096,68,68,1101516,1101583,8812670043,8813206045,233,24643,0,1,1,0
81838968000000,81839484000000,516.0,4096,68,67,1101584,1101650,8813214046,8813742046,297,24711,0,1,1,0
81839515000000,81840015000000,500.0,4096,69,68,1101651,1101718,8813750047,8814286043,201,24780,0,1,1,0
81840046000000,81840562000000,516.0,4096,67,67,1101719,1101785,8814294043,8814822043,230,24847,0,1,1,0
81840593000000,81841093000000,500.0,4096,69,68,1101786,1101853,8814830043,8815366047,209,24916,0,1,1,0
81841125000000,81841640000000,515.0,4096,67,67,1101854,1101920,8815374043,8815902043,157,24983,0,1,1,0
81841656000000,81842171000000,515.0,4096,69,67,1101921,1101987,8815910043,8816438043,337,25052,0,1,1,0
81842218000000,81842718000000,500.0,4096,68,67,1101988,1102054,8816446043,8816974043,219,25120,0,1,1,0
81842750000000,81843250000000,500.0,4096,68,68,1102055,1102122,8816982047,8817518045,163,25188,0,1,1,0
81843281000000,81843796000000,515.0,4096,68,67,1102123,1102189,8817526044,8818054044,266,25256,0,1,1,0
81843828000000,81844328000000,500.0,4096,68,67,1102190,1102256,8818062043,8818590045,262,25324,0,1,1,0
81844359000000,81844859000000,500.0,4096,68,67,1102257,1102323,8818598044,8819126043,137,25392,0,1,1,0
81844890000000,81845406000000,516.0,4096,68,68,1102324,1102391,8819134047,8819670043,191,25460,0,1,1,0
81845437000000,81845937000000,500.0,4096,68,67,1102392,1102458,8819678043,8820206047,303,25528,0,1,1,0
81845984000000,81846484000000,500.0,4096,68,67,1102459,1102525,8820214043,8820742043,130,25596,0,1,1,0
81846500000000,81847015000000,515.0,4096,69,67,1102526,1102592,8820750047,8821278045,206,25665,0,1,1,0
81847046000000,81847562000000,516.0,4096,68,68,1102593,1102660,8821286043,8821822043,237,25733,0,1,1,0
81847578000000,81848093000000,515.0,4096,69,67,1102661,1102727,8821830043,8822358043,215,25802,0,1,1,0
81848125000000,81848625000000,500.0,4096,68,67,1102728,1102794,8822366043,8822894043,253,25870,0,1,1,0
81848656000000,81849171000000,515.0,4096,67,67,1102795,1102861,8822902043,8823430043,188,25937,0,1,1,0
81849203000000,81849703000000,500.0,4096,69,68,1102862,1102929,8823438044,8823974043,282,26006,0,1,1,0
81849750000000,81850250000000,500.0,4096,68,67,1102930,1102996,8823982044,8824510043,213,26074,0,1,1,0
81850281000000,81850781000000,500.0,4096,68,67,1102997,1103063,8824518046,8825046043,188,26142,0,1,1,0
81850812000000,81851328000000,516.0,4096,68,68,1103064,1103131,8825054043,8825590045,205,26210,0,1,1,0
81851359000000,81851859000000,500.0,4096,68,67,1103132,1103198,8825598047,8826126046,258,26278,0,1,1,0
81851906000000,81852390000000,484.0,4096,69,67,1103199,1103265,8826134043,8826662046,262,26347,0,1,1,0
81852437000000,81852937000000,500.0,4096,68,67,1103266,1103332,8826670045,8827198043,170,26415,0,1,1,0
81852953000000,81853484000000,531.0,4096,68,68,1103333,1103400,8827206045,8827742045,278,26483,0,1,1,0
81853515000000,81854015000000,500.0,4096,68,67,1103401,1103467,8827750044,8828278043,210,26551,0,1,1,0
81854046000000,81854546000000,500.0,4096,68,67,1103468,1103534,8828286046,8828814045,280,26619,0,1,1,0
81854593000000,81855093000000,500.0,4096,68,68,1103535,1103602,8828822047,8829358046,221,26687,0,1,1,0
81855125000000,81855640000000,515.0,4096,68,67,1103603,1103669,8829366044,8829894046,260,26755,0,1,1,0
81855671000000,81856171000000,500.0,4096,68,67,1103670,1103736,8829902045,8830430043,167,26823,0,1,1,0
81856187000000,81856703000000,516.0,4096,68,67,1103737,1103803,8830438043,8830966043,356,26891,0,1,1,0
81856750000000,81857250000000,500.0,4096,69,67,1103804,1103870,8830974043,8831502043,305,26960,0,1,1,0
81857281000000,81857781000000,500.0,4096,68,68,1103871,1103938,8831510043,8832046043,196,27028,0,1,1,0
81857812000000,81858312000000,500.0,4096,68,67,1103939,1104005,8832054043,8832582044,1305,27096,0,1,1,0
81858500000000,81858859000000,359.0,4096,68,67,1104006,1104072,8832590044,8833118043,260,27164,0,1,1,0
81858890000000,81859390000000,500.0,4096,68,68,1104073,1104140,8833126043,8833662043,186,27232,0,1,1,0
81859421000000,81859937000000,516.0,4096,68,67,1104141,1104207,8833670045,8834198043,331,27300,0,1,1,0
81859984000000,81860468000000,484.0,4096,69,68,1104208,1104275,8834206046,8834742043,244,27369,0,1,1,0
81860515000000,81861015000000,500.0,4096,67,67,1104276,1104342,8834750043,8835278043,181,27436,0,1,1,0
81861031000000,81861546000000,515.0,4096,68,67,1104343,1104409,8835286044,8835814044,466,27504,0,1,1,0
81861609000000,81862093000000,484.0,4096,69,68,1104410,1104477,8835822043,8836358043,267,27573,0,1,1,0
81862125000000,81862640000000,515.0,4096,68,67,1104478,1104544,8836366047,8836894043,230,27641,0,1,1,0
81862656000000,81863171000000,515.0,4096,68,67,1104545,1104611,8836902043,8837430046,255,27709,0,1,1,0
81863203000000,81863718000000,515.0,4096,69,69,1104612,1104680,8837438043,8837982047,248,27778,0,1,1,0
81863750000000,81864250000000,500.0,4096,68,67,1104681,1104747,8837990043,8838518043,231,27846,0,1,1,0
81864296000000,81864796000000,500.0,4096,68,67,1104748,1104814,8838526043,8839054045,367,27914,0,1,1,0
81864843000000,81865328000000,485.0,4096,68,67,1104815,1104881,8839062046,8839590043,133,27982,0,1,1,0
81865343000000,81865875000000,532.0,4096,69,69,1104882,1104950,8839598043,8840142043,417,28051,0,1,1,0
81865921000000,81866421000000,500.0,4096,68,67,1104951,1105017,8840150043,8840678046,254,28119,0,1,1,0
81866453000000,81866953000000,500.0,4096,68,66,1105018,1105083,8840686043,8841206043,185,28187,0,1,1,0
81866968000000,81867484000000,516.0,4096,69,68,1105084,1105151,8841214046,8841750043,326,28256,0,1,1,0
81867531000000,81868015000000,484.0,4096,68,67,1105152,1105218,8841758043,8842286047,223,28324,0,1,1,0
81868046000000,81868562000000,516.0,4096,69,68,1105219,1105286,8842294043,8842830047,185,28393,0,1,1,0
81868593000000,81869125000000,532.0,4096,70,69,1105287,1105355,8842838043,8843382046,259,28463,0,1,1,0
81869156000000,81869656000000,500.0,4096,68,67,1105356,1105422,8843390045,8843918045,339,28531,0,1,1,0
81869703000000,81870234000000,531.0,4096,72,72,1105423,1105494,8843926043,8844494043,230,28603,0,1,1,0
81870265000000,81870812000000,547.0,4096,73,73,1105495,1105567,8844502043,8845078045,272,28676,0,1,1,0
81870843000000,81871375000000,532.0,4096,71,71,1105568,1105638,8845086043,8845646044,168,28747,0,1,1,0
81871406000000,81871953000000,547.0,4096,73,72,1105639,1105710,8845654047,8846222047,206,28820,0,1,1,0
81872000000000,81872515000000,515.0,4096,71,70,1105711,1105780,8846230043,8846782047,313,28891,0,1,1,0
81872546000000,81873046000000,500.0,4096,68,67,1105781,1105847,8846790043,8847318043,222,28959,0,1,1,0
81873078000000,81873593000000,515.0,4096,68,67,1105848,1105914,8847326043,8847854046,254,29027,0,1,1,0
81873625000000,81874140000000,515.0,4096,68,68,1105915,1105982,8847862047,8848398043,359,29095,0,1,1,0
81874187000000,81874671000000,484.0,4096,68,67,1105983,1106049,8848406043,8848934043,291,29163,0,1,1,0
81874718000000,81875218000000,500.0,4096,69,68,1106050,1106117,8848942043,8849478043,162,29232,0,1,1,0
81875234000000,81875765000000,531.0,4096,68,68,1106118,1106185,8849486043,8850022043,226,29300,0,1,1,0
81875796000000,81876312000000,516.0,4096,69,68,1106186,1106253,8850030043,8850566043,320,29369,0,1,1,0
81876343000000,81876843000000,500.0,4096,68,67,1106254,1106320,8850574043,8851102044,202,29437,0,1,1,0
81876875000000,81877375000000,500.0,4096,68,67,1106321,1106387,8851110044,8851638046,306,29505,0,1,1,0
81877421000000,81877921000000,500.0,4096,69,68,1106388,1106455,8851646043,8852182043,341,29574,0,1,1,0
81877968000000,81878468000000,500.0,4096,69,68,1106456,1106523,8852190043,8852726043,151,29643,0,1,1,0
81878484000000,81879000000000,516.0,4096,68,68,1106524,1106591,8852734043,8853270045,1353,29711,0,1,1,0
81879187000000,81879546000000,359.0,4096,69,68,1106592,1106659,8853278043,8853814045,307,29780,0,1,1,0
81879593000000,81880093000000,500.0,4096,68,68,1106660,1106727,8853822043,8854358043,230,29848,0,1,1,0
81880125000000,81880625000000,500.0,4096,68,67,1106728,1106794,8854366043,8854894045,160,29916,0,1,1,0
81880656000000,81881171000000,515.0,4096,68,67,1106795,1106861,8854902043,8855430044,237,29984,0,1,1,0
81881203000000,81881703000000,500.0,4096,68,68,1106862,1106929,8855438043,8855974043,249,30052,0,1,1,0
81881750000000,81882250000000,500.0,4096,69,67,1106930,1106996,8855982045,8856510043,160,30121,0,1,1,0
81882265000000,81882781000000,516.0,4096,68,68,1106997,1107064,8856518043,8857054047,273,30189,0,1,1,0
81882812000000,81883328000000,516.0,4096,68,67,1107065,1107131,8857062043,8857590043,370,30257,0,1,1,0
81883375000000,81883859000000,484.0,4096,68,67,1107132,1107198,8857598043,8858126043,157,30325,0,1,1,0
81883890000000,81884406000000,516.0,4096,68,68,1107199,1107266,8858134043,8858670043,294,30393,0,1,1,0
81884453000000,81884953000000,500.0,4096,69,68,1107267,1107334,8858678043,8859214043,240,30462,0,1,1,0
81884984000000,81885484000000,500.0,4096,68,67,1107335,1107401,8859222043,8859750045,206,30530,0,1,1,0
81885515000000,81886031000000,516.0,4096,67,67,1107402,1107468,8859758043,8860286047,220,30597,0,1,1,0
81886062000000,81886562000000,500.0,4096,69,68,1107469,1107536,8860294044,8860830043,225,30666,0,1,1,0
81886593000000,81887109000000,516.0,4096,68,67,1107537,1107603,8860838044,8861366046,177,30734,0,1,1,0
81887125000000,81887640000000,515.0,4096,69,67,1107604,1107670,8861374043,8861902043,239,30803,0,1,1,0
81887671000000,81888171000000,500.0,4096,68,67,1107671,1107737,8861910043,8862438043,155,30871,0,1,1,0
81888203000000,81888718000000,515.0,4096,68,68,1107738,1107805,8862446043,8862982043,268,30939,0,1,1,0
81888750000000,81889250000000,500.0,4096,68,67,1107806,1107872,8862990043,8863518044,239,31007,0,1,1,0
81889281000000,81889796000000,515.0,4096,68,67,1107873,1107939,8863526045,8864054044,230,31075,0,1,1,0
81889828000000,81890328000000,500.0,4096,68,68,1107940,1108007,8864062044,8864598043,214,31143,0,1,1,0
81890359000000,81890875000000,516.0,4096,68,67,1108008,1108074,8864606043,8865134043,309,31211,0,1,1,0
81890921000000,81891421000000,500.0,4096,68,68,1108075,1108142,8865142043,8865678044,198,31279,0,1,1,0
81891437000000,81891953000000,516.0,4096,69,67,1108143,1108209,8865686043,8866214043,288,31348,0,1,1,0
81891984000000,81892484000000,500.0,4096,68,67,1108210,1108276,8866222043,8866750043,289,31416,0,1,1,0
81892531000000,81893031000000,500.0,4096,68,68,1108277,1108344,8866758043,8867294043,203,31484,0,1,1,0
81893062000000,81893562000000,500.0,4096,68,67,1108345,1108411,8867302043,8867830046,289,31552,0,1,1,0
81893609000000,81894109000000,500.0,4096,69,68,1108412,1108479,8867838043,8868374047,286,31621,0,1,1,0
81894140000000,81894656000000,516.0,4096,68,68,1108480,1108547,8868382043,8868918044,264,31689,0,1,1,0
81894687000000,81895187000000,500.0,4096,68,67,1108548,1108614,8868926043,8869454043,289,31757,0,1,1,0
81895234000000,81895734000000,500.0,4096,68,67,1108615,1108681,8869462047,8869990046,237,31825,0,1,1,0
81895765000000,81896265000000,500.0,4096,67,67,1108682,1108748,8869998043,8870526043,157,31892,0,1,1,0
81896281000000,81896796000000,515.0,4096,67,66,1108749,1108814,8870534043,8871054047,281,31959,0,1,1,0
81896828000000,81897328000000,500.0,4096,68,67,1108815,1108881,8871062046,8871590043,269,32027,0,1,1,0
81897359000000,81897859000000,500.0,4096,67,66,1108882,1108947,8871598043,8872118046,323,32094,0,1,1,0
81897890000000,81898375000000,485.0,4096,67,66,1108948,1109013,8872126046,8872646044,382,32161,0,1,1,0
81898437000000,81898921000000,484.0,4096,67,66,1109014,1109079,8872654045,8873174043,326,32228,0,1,1,0
81898953000000,81899453000000,500.0,4096,67,67,1109080,1109146,8873182047,8873710043,1441,32295,0,1,1,0
81899640000000,81899984000000,344.0,4096,67,66,1109147,1109212,8873718043,8874238047,369,32362,0,1,1,0
81900015000000,81900500000000,485.0,4096,67,66,1109213,1109278,8874246047,8874766047,231,32429,0,1,1,0
81900531000000,81901046000000,515.0,4096,68,68,1109279,1109346,8874774047,8875310043,217,32497,0,1,1,0
81901078000000,81901578000000,500.0,4096,68,67,1109347,1109413,8875318045,8875846043,170,32565,0,1,1,0
81901609000000,81902125000000,516.0,4096,68,67,1109414,1109480,8875854043,8876382043,267,32633,0,1,1,0
81902156000000,81902656000000,500.0,4096,69,68,1109481,1109548,8876390047,8876926043,274,32702,0,1,1,0
81902703000000,81903203000000,500.0,4096,68,67,1109549,1109615,8876934046,8877462045,200,32770,0,1,1,0
81903218000000,81903734000000,516.0,4096,68,68,1109616,1109683,8877470043,8878006043,248,32838,0,1,1,0
81903781000000,81904265000000,484.0,4096,67,66,1109684,1109749,8878014043,8878534043,391,32905,0,1,1,0
81904328000000,81904796000000,468.0,4096,67,66,1109750,1109815,8878542043,8879062046,215,32972,0,1,1,0
81904828000000,81905343000000,515.0,4096,67,67,1109816,1109882,8879070047,8879598043,296,33039,0,1,1,0
81905375000000,81905859000000,484.0,4096,67,66,1109883,1109948,8879606043,8880126046,238,33106,0,1,1,0
81905890000000,81906406000000,516.0,4096,67,67,1109949,1110015,8880134043,8880662045,384,33173,0,1,1,0
81906437000000,81906937000000,500.0,4096,68,67,1110016,1110082,8880670046,8881198046,391,33241,0,1,1,0
81906984000000,81907453000000,469.0,4096,67,65,1110083,1110147,8881206044,8881718046,151,33308,0,1,1,0
81907468000000,81907984000000,516.0,4096,67,66,1110148,1110213,8881726043,8882246043,262,33375,0,1,1,0
81908015000000,81908515000000,500.0,4096,68,67,1110214,1110280,8882254044,8882782043,160,33443,0,1,1,0
81908546000000,81909062000000,516.0,4096,68,68,1110281,1110348,8882790043,8883326043,209,33511,0,1,1,0
81909093000000,81909609000000,516.0,4096,69,68,1110349,1110416,8883334047,8883870046,303,33580,0,1,1,0
81909640000000,81910140000000,500.0,4096,68,67,1110417,1110483,8883878046,8884406043,178,33648,0,1,1,0
81910156000000,81910687000000,531.0,4096,68,68,1110484,1110551,8884414044,8884950043,244,33716,0,1,1,0
81910718000000,81911218000000,500.0,4096,68,67,1110552,1110618,8884958043,8885486043,219,33784,0,1,1,0
81911250000000,81911765000000,515.0,4096,67,67,1110619,1110685,8885494043,8886022043,307,33851,0,1,1,0
81911796000000,81912296000000,500.0,4096,70,68,1110686,1110753,8886030043,8886566045,267,33921,0,1,1,0
81912343000000,81912843000000,500.0,4096,68,67,1110754,1110820,8886574043,8887102044,290,33989,0,1,1,0
81912875000000,81913375000000,500.0,4096,68,68,1110821,1110888,8887110043,8887646043,176,34057,0,1,1,0
81913406000000,81913921000000,515.0,4096,68,67,1110889,1110955,8887654043,8888182043,295,34125,0,1,1,0
81913953000000,81914468000000,515.0,4096,68,68,1110956,1111023,8888190043,8888726043,447,34193,0,1,1,0
81914531000000,81915000000000,469.0,4096,68,67,1111024,1111090,8888734043,8889262045,256,34261,0,1,1,0
81915031000000,81915546000000,515.0,4096,69,68,1111091,1111158,8889270043,8889806043,257,34330,0,1,1,0
81915578000000,81916093000000,515.0,4096,68,68,1111159,1111226,8889814043,8890350044,224,34398,0,1,1,0
81916109000000,81916625000000,516.0,4096,67,66,1111227,1111292,8890358043,8890878044,243,34465,0,1,1,0
81916656000000,81917156000000,500.0,4096,68,67,1111293,1111359,8890886045,8891414043,279,34533,0,1,1,0
81917187000000,81917687000000,500.0,4096,67,66,1111360,1111425,8891422043,8891942043,191,34600,0,1,1,0
81917703000000,81918203000000,500.0,4096,67,66,1111426,1111491,8891950044,8892470043,222,34667,0,1,1,0
81918234000000,81918750000000,516.0,4096,67,67,1111492,1111558,8892478043,8893006045,227,34734,0,1,1,0
81918781000000,81919281000000,500.0,4096,68,67,1111559,1111625,8893014043,8893542044,230,34802,0,1,1,0
81919312000000,81919812000000,500.0,4096,67,66,1111626,1111691,8893550043,8894070043,358,34869,0,1,1,0
81919843000000,81920343000000,500.0,4096,67,67,1111692,1111758,8894078044,8894606047,1407,34936,0,1,1,0
81920531000000,81920875000000,344.0,4096,67,66,1111759,1111824,8894614047,8895134044,253,35003,0,1,1,0
81920906000000,81921406000000,500.0,4096,67,67,1111825,1111891,8895142045,8895670043,261,35070,0,1,1,0
81921437000000,81921937000000,500.0,4096,69,67,1111892,1111958,8895678044,8896206045,224,35139,0,1,1,0
81921968000000,81922484000000,516.0,4096,68,67,1111959,1112025,8896214045,8896742043,324,35207,0,1,1,0
81922531000000,81923031000000,500.0,4096,69,69,1112026,1112094,8896750043,8897294043,401,35276,0,1,1,0
81923078000000,81923562000000,484.0,4096,68,67,1112095,1112161,8897302043,8897830044,167,35344,0,1,1,0
81923593000000,81924109000000,516.0,4096,68,67,1112162,1112228,8897838043,8898366047,252,35412,0,1,1,0
81924140000000,81924640000000,500.0,4096,68,68,1112229,1112296,8898374045,8898910047,339,35480,0,1,1,0
81924687000000,81925187000000,500.0,4096,69,68,1112297,1112364,8898918047,8899454043,237,35549,0,1,1,0
81925218000000,81925734000000,516.0,4096,69,68,1112365,1112432,8899462046,8899998043,238,35618,0,1,1,0
81925765000000,81926265000000,500.0,4096,68,67,1112433,1112499,8900006047,8900534046,275,35686,0,1,1,0
81926312000000,81926812000000,500.0,4096,68,67,1112500,1112566,8900542045,8901070047,294,35754,0,1,1,0
81926843000000,81927343000000,500.0,4096,69,68,1112567,1112634,8901078043,8901614043,271,35823,0,1,1,0
81927390000000,81927875000000,485.0,4096,68,66,1112635,1112700,8901622043,8902142044,207,35891,0,1,1,0
81927906000000,81928421000000,515.0,4096,69,68,1112701,1112768,8902150043,8902686043,177,35960,0,1,1,0
81928437000000,81928953000000,516.0,4096,68,67,1112769,1112835,8902694046,8903222043,242,36028,0,1,1,0
81929000000000,81929500000000,500.0,4096,69,68,1112836,1112903,8903230046,8903766043,231,36097,0,1,1,0
81929531000000,81930031000000,500.0,4096,68,67,1112904,1112970,8903774044,8904302043,365,36165,0,1,1,0
81930093000000,81930578000000,485.0,4096,68,68,1112971,1113038,8904310044,8904846043,297,36233,0,1,1,0
81930625000000,81931125000000,500.0,4096,68,67,1113039,1113105,8904854044,8905382043,154,36301,0,1,1,0
81931140000000,81931656000000,516.0,4096,69,68,1113106,1113173,8905390043,8905926043,244,36370,0,1,1,0
81931703000000,81932203000000,500.0,4096,69,67,1113174,1113240,8905934043,8906462043,261,36439,0,1,1,0
81932234000000,81932734000000,500.0,4096,69,68,1113241,1113308,8906470047,8907006047,157,36508,0,1,1,0
81932765000000,81933281000000,516.0,4096,68,67,1113309,1113375,8907014047,8907542043,304,36576,0,1,1,0
81933312000000,81933812000000,500.0,4096,67,67,1113376,1113442,8907550044,8908078047,333,36643,0,1,1,0
81933843000000,81934343000000,500.0,4096,67,66,1113443,1113508,8908086047,8908606043,268,36710,0,1,1,0
81934375000000,81934875000000,500.0,4096,67,66,1113509,1113574,8908614047,8909134047,217,36777,0,1,1,0
81934906000000,81935406000000,500.0,4096,68,67,1113575,1113641,8909142044,8909670047,272,36845,0,1,1,0
81935437000000,81935937000000,500.0,4096,67,66,1113642,1113707,8909678046,8910198045,257,36912,0,1,1,0
81935968000000,81936468000000,500.0,4096,67,66,1113708,1113773,8910206043,8910726043,248,36979,0,1,1,0
81936500000000,81937000000000,500.0,4096,68,67,1113774,1113840,8910734043,8911262043,225,37047,0,1,1,0
81937031000000,81937531000000,500.0,4096,67,66,1113841,1113906,8911270043,8911790044,361,37114,0,1,1,0
81937578000000,81938062000000,484.0,4096,68,67,1113907,1113973,8911798043,8912326046,301,37182,0,1,1,0
81938109000000,81938593000000,484.0,4096,68,67,1113974,1114040,8912334046,8912862043,188,37250,0,1,1,0
81938625000000,81939140000000,515.0,4096,69,68,1114041,1114108,8912870043,8913406043,252,37319,0,1,1,0
81939171000000,81939687000000,516.0,4096,68,67,1114109,1114175,8913414047,8913942044,262,37387,0,1,1,0
81939718000000,81940218000000,500.0,4096,68,67,1114176,1114242,8913950044,8914478044,1886,37455,0,1,1,0
81940468000000,81940765000000,297.0,4096,68,68,1114243,1114310,8914486044,8915022043,408,37523,0,1,1,0
81940812000000,81941312000000,500.0,4096,69,68,1114311,1114378,8915030043,8915566043,203,37592,0,1,1,0
81941328000000,81941843000000,515.0,4096,68,67,1114379,1114445,8915574043,8916102043,309,37660,0,1,1,0
81941875000000,81942375000000,500.0,4096,69,67,1114446,1114512,8916110043,8916638043,269,37729,0,1,1,0
81942406000000,81942906000000,500.0,4096,67,67,1114513,1114579,8916646045,8917174043,203,37796,0,1,1,0
81942921000000,81943437000000,516.0,4096,67,66,1114580,1114645,8917182043,8917702044,219,37863,0,1,1,0
81943468000000,81943968000000,500.0,4096,67,66,1114646,1114711,8917710043,8918230046,248,37930,0,1,1,0
81944000000000,81944500000000,500.0,4096,67,67,1114712,1114778,8918238044,8918766044,227,37997,0,1,1,0
81944531000000,81945031000000,500.0,4096,67,66,1114779,1114844,8918774046,8919294043,387,38064,0,1,1,0
81945078000000,81945562000000,484.0,4096,67,66,1114845,1114910,8919302046,8919822043,342,38131,0,1,1,0
81945609000000,81946093000000,484.0,4096,67,67,1114911,1114977,8919830043,8920358047,322,38198,0,1,1,0
81946140000000,81946625000000,485.0,4096,68,67,1114978,1115044,8920366043,8920894047,248,38266,0,1,1,0
81946656000000,81947156000000,500.0,4096,68,66,1115045,1115110,8920902045,8921422043,166,38334,0,1,1,0
81947187000000,81947687000000,500.0,4096,69,67,1115111,1115177,8921430046,8921958044,257,38403,0,1,1,0
81947718000000,81948234000000,516.0,4096,68,68,1115178,1115245,8921966045,8922502044,371,38471,0,1,1,0
81948281000000,81948781000000,500.0,4096,68,67,1115246,1115312,8922510043,8923038043,196,38539,0,1,1,0
81948796000000,81949312000000,516.0,4096,68,67,1115313,1115379,8923046043,8923574043,241,38607,0,1,1,0
81949343000000,81949859000000,516.0,4096,69,68,1115380,1115447,8923582043,8924118043,279,38676,0,1,1,0
81949890000000,81950390000000,500.0,4096,68,68,1115448,1115515,8924126043,8924662043,185,38744,0,1,1,0
81950421000000,81950937000000,516.0,4096,69,68,1115516,1115583,8924670043,8925206043,269,38813,0,1,1,0
81950968000000,81951484000000,516.0,4096,68,67,1115584,1115650,8925214044,8925742043,245,38881,0,1,1,0
81951515000000,81952015000000,500.0,4096,69,67,1115651,1115717,8925750043,8926278043,188,38950,0,1,1,0
81952031000000,81952562000000,531.0,4096,68,68,1115718,1115785,8926286043,8926822045,327,39018,0,1,1,0
81952593000000,81953109000000,516.0,4096,68,67,1115786,1115852,8926830043,8927358046,414,39086,0,1,1,0
81953156000000,81953640000000,484.0,4096,69,68,1115853,1115920,8927366047,8927902047,166,39155,0,1,1,0
81953656000000,81954171000000,515.0,4096,68,67,1115921,1115987,8927910045,8928438045,241,39223,0,1,1,0
81954203000000,81954718000000,515.0,4096,68,68,1115988,1116055,8928446043,8928982043,311,39291,0,1,1,0
81954750000000,81955265000000,515.0,4096,68,67,1116056,1116122,8928990044,8929518043,187,39359,0,1,1,0
81955281000000,81955796000000,515.0,4096,69,68,1116123,1116190,8929526047,8930062045,261,39428,0,1,1,0
81955828000000,81956343000000,515.0,4096,68,67,1116191,1116257,8930070047,8930598043,218,39496,0,1,1,0
81956375000000,81956875000000,500.0,4096,69,68,1116258,1116325,8930606045,8931142046,229,39565,0,1,1,0
81956906000000,81957421000000,515.0,4096,68,67,1116326,1116392,8931150044,8931678043,261,39633,0,1,1,0
81957453000000,81957953000000,500.0,4096,69,68,1116393,1116460,8931686043,8932222043,190,39702,0,1,1,0
81957984000000,81958500000000,516.0,4096,68,67,1116461,1116527,8932230046,8932758043,234,39770,0,1,1,0
81958531000000,81959031000000,500.0,4096,68,67,1116528,1116594,8932766043,8933294043,246,39838,0,1,1,0
81959062000000,81959578000000,516.0,4096,69,69,1116595,1116663,8933302043,8933846043,398,39907,0,1,1,0
81959625000000,81960125000000,500.0,4096,68,67,1116664,1116730,8933854046,8934382043,330,39975,0,1,1,0
81960171000000,81960656000000,485.0,4096,68,67,1116731,1116797,8934390043,8934918046,1602,40043,0,1,1,0
81960875000000,81961203000000,328.0,4096,68,68,1116798,1116865,8934926043,8935462045,243,40111,0,1,1,0
81961234000000,81961734000000,500.0,4096,69,68,1116866,1116933,8935470043,8936006043,255,40180,0,1,1,0
81961781000000,81962281000000,500.0,4096,69,67,1116934,1117000,8936014045,8936542045,248,40249,0,1,1,0
81962312000000,81962812000000,500.0,4096,68,67,1117001,1117067,8936550043,8937078044,169,40317,0,1,1,0
81962843000000,81963359000000,516.0,4096,69,69,1117068,1117136,8937086043,8937630043,271,40386,0,1,1,0
81963406000000,81963906000000,500.0,4096,68,67,1117137,1117203,8937638043,8938166043,294,40454,0,1,1,0
81963937000000,81964437000000,500.0,4096,68,67,1117204,1117270,8938174043,8938702043,215,40522,0,1,1,0
81964468000000,81964968000000,500.0,4096,68,67,1117271,1117337,8938710047,8939238047,323,40590,0,1,1,0
81965015000000,81965515000000,500.0,4096,67,67,1117338,1117404,8939246043,8939774043,250,40657,0,1,1,0
81965546000000,81966046000000,500.0,4096,67,66,1117405,1117470,8939782045,8940302043,203,40724,0,1,1,0
81966062000000,81966578000000,516.0,4096,68,67,1117471,1117537,8940310043,8940838046,329,40792,0,1,1,0
81966625000000,81967109000000,484.0,4096,68,67,1117538,1117604,8940846046,8941374043,386,40860,0,1,1,0
81967156000000,81967640000000,484.0,4096,67,65,1117605,1117669,8941382043,8941894043,372,40927,0,1,1,0
81967687000000,81968171000000,484.0,4096,68,67,1117670,1117736,8941902043,8942430046,271,40995,0,1,1,0
81968203000000,81968687000000,484.0,4096,67,66,1117737,1117802,8942438043,8942958043,168,41062,0,1,1,0
81968718000000,81969218000000,500.0,4096,67,66,1117803,1117868,8942966045,8943486044,275,41129,0,1,1,0
81969265000000,81969781000000,516.0,4096,69,69,1117869,1117937,8943494043,8944038047,365,41198,0,1,1,0
81969812000000,81970312000000,500.0,4096,68,67,1117938,1118004,8944046043,8944574043,180,41266,0,1,1,0
81970328000000,81970859000000,531.0,4096,68,68,1118005,1118072,8944582043,8945118043,289,41334,0,1,1,0
81970890000000,81971390000000,500.0,4096,68,67,1118073,1118139,8945126043,8945654047,325,41402,0,1,1,0
81971437000000,81971937000000,500.0,4096,69,68,1118140,1118207,8945662043,8946198044,227,41471,0,1,1,0
81971953000000,81972468000000,515.0,4096,69,67,1118208,1118274,8946206047,8946734044,247,41540,0,1,1,0
81972500000000,81973015000000,515.0,4096,68,68,1118275,1118342,8946742043,8947278046,184,41608,0,1,1,0
81973046000000,81973562000000,516.0,4096,69,68,1118343,1118410,8947286044,8947822043,329,41677,0,1,1,0
81973593000000,81974093000000,500.0,4096,68,67,1118411,1118477,8947830046,8948358043,377,41745,0,1,1,0
81974140000000,81974625000000,485.0,4096,68,67,1118478,1118544,8948366043,8948894045,321,41813,0,1,1,0
81974671000000,81975171000000,500.0,4096,68,68,1118545,1118612,8948902045,8949438043,358,41881,0,1,1,0
81975218000000,81975718000000,500.0,4096,69,68,1118613,1118680,8949446043,8949982046,270,41950,0,1,1,0
81975750000000,81976250000000,500.0,4096,68,67,1118681,1118747,8949990045,8950518043,261,42018,0,1,1,0
81976296000000,81976796000000,500.0,4096,68,68,1118748,1118815,8950526047,8951062047,292,42086,0,1,1,0
81976843000000,81977343000000,500.0,4096,69,67,1118816,1118882,8951070045,8951598047,277,42155,0,1,1,0
81977375000000,81977875000000,500.0,4096,69,68,1118883,1118950,8951606045,8952142043,208,42224,0,1,1,0
81977906000000,81978421000000,515.0,4096,68,68,1118951,1119018,8952150043,8952686047,464,42292,0,1,1,0
81978484000000,81978968000000,484.0,4096,69,68,1119019,1119086,8952694043,8953230043,323,42361,0,1,1,0
81979015000000,81979500000000,485.0,4096,68,67,1119087,1119153,8953238047,8953766044,241,42429,0,1,1,0
81979531000000,81980046000000,515.0,4096,68,68,1119154,1119221,8953774043,8954310043,254,42497,0,1,1,0
81980078000000,81980593000000,515.0,4096,68,67,1119222,1119288,8954318043,8954846043,345,42565,0,1,1,0
81980625000000,81981125000000,500.0,4096,69,68,1119289,1119356,8954854047,8955390043,380,42634,0,1,1,0
81981171000000,81981671000000,500.0,4096,68,68,1119357,1119424,8955398043,8955934044,1812,42702,0,1,1,0
81981906000000,81982203000000,297.0,4096,69,67,1119425,1119491,8955942044,8956470043,298,42771,0,1,1,0
81982234000000,81982750000000,516.0,4096,68,67,1119492,1119558,8956478043,8957006044,360,42839,0,1,1,0
81982796000000,81983281000000,485.0,4096,68,67,1119559,1119625,8957014047,8957542043,298,42907,0,1,1,0
81983312000000,81983828000000,516.0,4096,68,68,1119626,1119693,8957550045,8958086043,494,42975,0,1,1,0
81983890000000,81984359000000,469.0,4096,68,67,1119694,1119760,8958094043,8958622043,309,43043,0,1,1,0
81984406000000,81984906000000,500.0,4096,69,68,1119761,1119828,8958630043,8959166043,331,43112,0,1,1,0
81984937000000,81985437000000,500.0,4096,67,67,1119829,1119895,8959174044,8959702043,285,43179,0,1,1,0
81985484000000,81985984000000,500.0,4096,69,68,1119896,1119963,8959710043,8960246047,261,43248,0,1,1,0
81986015000000,81986515000000,500.0,4096,68,67,1119964,1120030,8960254044,8960782043,194,43316,0,1,1,0
81986546000000,81987046000000,500.0,4096,68,67,1120031,1120097,8960790043,8961318043,246,43384,0,1,1,0
81987093000000,81987593000000,500.0,4096,69,67,1120098,1120164,8961326044,8961854043,223,43453,0,1,1,0
81987625000000,81988125000000,500.0,4096,68,67,1120165,1120231,8961862044,8962390043,516,43521,0,1,1,0
81988187000000,81988671000000,484.0,4096,68,68,1120232,1120299,8962398045,8962934045,334,43589,0,1,1,0
81988703000000,81989203000000,500.0,4096,68,67,1120300,1120366,8962942044,8963470046,185,43657,0,1,1,0
81989234000000,81989750000000,516.0,4096,68,67,1120367,1120433,8963478043,8964006046,377,43725,0,1,1,0
81989796000000,81990281000000,485.0,4096,68,68,1120434,1120501,8964014043,8964550045,299,43793,0,1,1,0
81990328000000,81990828000000,500.0,4096,68,67,1120502,1120568,8964558043,8965086044,195,43861,0,1,1,0
81990843000000,81991359000000,516.0,4096,68,67,1120569,1120635,8965094043,8965622043,242,43929,0,1,1,0
81991390000000,81991906000000,516.0,4096,68,68,1120636,1120703,8965630047,8966166043,383,43997,0,1,1,0
81991937000000,81992437000000,500.0,4096,69,67,1120704,1120770,8966174047,8966702044,249,44066,0,1,1,0
81992468000000,81992984000000,516.0,4096,68,67,1120771,1120837,8966710047,8967238043,225,44134,0,1,1,0
81993015000000,81993515000000,500.0,4096,68,68,1120838,1120905,8967246045,8967782043,299,44202,0,1,1,0
81993546000000,81994062000000,516.0,4096,68,67,1120906,1120972,8967790046,8968318044,227,44270,0,1,1,0
81994093000000,81994593000000,500.0,4096,69,68,1120973,1121040,8968326044,8968862046,411,44339,0,1,1,0
81994656000000,81995140000000,484.0,4096,67,67,1121041,1121107,8968870043,8969398045,412,44406,0,1,1,0
81995187000000,81995671000000,484.0,4096,69,68,1121108,1121175,8969406046,8969942044,214,44475,0,1,1,0
81995703000000,81996218000000,515.0,4096,68,67,1121176,1121242,8969950047,8970478045,251,44543,0,1,1,0
81996250000000,81996750000000,500.0,4096,67,67,1121243,1121309,8970486043,8971014043,294,44610,0,1,1,0
81996781000000,81997296000000,515.0,4096,69,67,1121310,1121376,8971022043,8971550043,200,44679,0,1,1,0
81997312000000,81997828000000,516.0,4096,69,68,1121377,1121444,8971558043,8972094046,355,44748,0,1,1,0
81997875000000,81998375000000,500.0,4096,67,67,1121445,1121511,8972102046,8972630043,547,44815,0,1,1,0
81998437000000,81998906000000,469.0,4096,69,68,1121512,1121579,8972638045,8973174043,275,44884,0,1,1,0
81998937000000,81999453000000,516.0,4096,68,67,1121580,1121646,8973182043,8973710045,476,44952,0,1,1,0
81999515000000,81999984000000,469.0,4096,67,67,1121647,1121713,8973718043,8974246043,288,45019,0,1,1,0
82000031000000,82000531000000,500.0,4096,69,68,1121714,1121781,8974254043,8974790043,386,45088,0,1,1,0
82000578000000,82001062000000,484.0,4096,68,67,1121782,1121848,8974798043,8975326044,433,45156,0,1,1,0
82001125000000,82001609000000,484.0,4096,68,68,1121849,1121916,8975334043,8975870044,2442,45224,0,1,1,0
82001937000000,82002140000000,203.0,4096,69,67,1121917,1121983,8975878043,8976406044,362,45293,0,1,1,0
82002203000000,82002687000000,484.0,4096,68,67,1121984,1122050,8976414043,8976942046,345,45361,0,1,1,0
82002718000000,82003218000000,500.0,4096,67,67,1122051,1122117,8976950043,8977478043,547,45428,0,1,1,0
82003296000000,82003750000000,454.0,4096,69,68,1122118,1122185,8977486044,8978022043,190,45497,0,1,1,0
82003781000000,82004296000000,515.0,4096,68,67,1122186,1122252,8978030043,8978558043,254,45565,0,1,1,0
82004328000000,82004843000000,515.0,4096,68,68,1122253,1122320,8978566047,8979102045,276,45633,0,1,1,0
82004875000000,82005375000000,500.0,4096,68,67,1122321,1122387,8979110043,8979638043,267,45701,0,1,1,0
82005406000000,82005921000000,515.0,4096,68,67,1122388,1122454,8979646043,8980174047,241,45769,0,1,1,0
82005953000000,82006453000000,500.0,4096,68,68,1122455,1122522,8980182047,8980718044,146,45837,0,1,1,0
82006484000000,82007000000000,516.0,4096,69,67,1122523,1122589,8980726043,8981254043,326,45906,0,1,1,0
82007031000000,82007531000000,500.0,4096,69,68,1122590,1122657,8981262043,8981798043,271,45975,0,1,1,0
82007562000000,82008062000000,500.0,4096,68,66,1122658,1122723,8981806045,8982326043,182,46043,0,1,1,0
82008093000000,82008609000000,516.0,4096,68,68,1122724,1122791,8982334043,8982870046,255,46111,0,1,1,0
82008640000000,82009140000000,500.0,4096,68,67,1122792,1122858,8982878043,8983406045,378,46179,0,1,1,0
82009203000000,82009687000000,484.0,4096,68,67,1122859,1122925,8983414043,8983942043,365,46247,0,1,1,0
82009734000000,82010218000000,484.0,4096,68,68,1122926,1122993,8983950043,8984486043,266,46315,0,1,1,0
82010265000000,82010765000000,500.0,4096,68,67,1122994,1123060,8984494043,8985022043,278,46383,0,1,1,0
82010796000000,82011296000000,500.0,4096,68,67,1123061,1123127,8985030043,8985558046,218,46451,0,1,1,0
82011328000000,82011843000000,515.0,4096,68,68,1123128,1123195,8985566043,8986102047,253,46519,0,1,1,0
82011875000000,82012375000000,500.0,4096,69,67,1123196,1123262,8986110043,8986638046,226,46588,0,1,1,0
82012406000000,82012906000000,500.0,4096,68,67,1123263,1123329,8986646044,8987174043,213,46656,0,1,1,0
82012937000000,82013453000000,516.0,4096,68,68,1123330,1123397,8987182045,8987718043,266,46724,0,1,1,0
82013500000000,82014000000000,500.0,4096,68,67,1123398,1123464,8987726043,8988254044,187,46792,0,1,1,0
82014015000000,82014531000000,516.0,4096,68,67,1123465,1123531,8988262043,8988790043,318,46860,0,1,1,0
82014578000000,82015078000000,500.0,4096,68,68,1123532,1123599,8988798043,8989334047,250,46928,0,1,1,0
82015109000000,82015609000000,500.0,4096,69,68,1123600,1123667,8989342045,8989878044,208,46997,0,1,1,0
82015640000000,82016156000000,516.0,4096,67,67,1123668,1123734,8989886043,8990414043,482,47064,0,1,1,0
82016218000000,82016687000000,469.0,4096,69,68,1123735,1123802,8990422045,8990958043,387,47133,0,1,1,0
82016734000000,82017218000000,484.0,4096,68,66,1123803,1123868,8990966043,8991486044,282,47201,0,1,1,0
82017265000000,82017765000000,500.0,4096,68,68,1123869,1123936,8991494044,8992030043,275,47269,0,1,1,0
82017796000000,82018312000000,516.0,4096,69,68,1123937,1124004,8992038046,8992574043,275,47338,0,1,1,0
82018343000000,82018843000000,500.0,4096,68,67,1124005,1124071,8992582043,8993110043,213,47406,0,1,1,0
82018875000000,82019390000000,515.0,4096,68,68,1124072,1124139,8993118043,8993654043,319,47474,0,1,1,0
82019437000000,82019921000000,484.0,4096,68,67,1124140,1124206,8993662044,8994190045,288,47542,0,1,1,0
82019968000000,82020468000000,500.0,4096,68,67,1124207,1124273,8994198043,8994726047,184,47610,0,1,1,0
82020484000000,82021015000000,531.0,4096,69,69,1124274,1124342,8994734043,8995278044,290,47679,0,1,1,0
82021046000000,82021546000000,500.0,4096,67,66,1124343,1124408,8995286043,8995806043,299,47746,0,1,1,0
82021578000000,82022062000000,484.0,4096,68,66,1124409,1124474,8995814043,8996334043,1942,47814,0,1,1,0
82022328000000,82022593000000,265.0,4096,67,66,1124475,1124540,8996342043,8996862043,282,47881,0,1,1,0
82022640000000,82023140000000,500.0,4096,67,67,1124541,1124607,8996870046,8997398047,171,47948,0,1,1,0
82023156000000,82023671000000,515.0,4096,67,66,1124608,1124673,8997406046,8997926043,301,48015,0,1,1,0
82023703000000,82024187000000,484.0,4096,67,66,1124674,1124739,8997934043,8998454043,364,48082,0,1,1,0
82024250000000,82024734000000,484.0,4096,67,67,1124740,1124806,8998462047,8998990043,374,48149,0,1,1,0
82024781000000,82025265000000,484.0,4096,67,66,1124807,1124872,8998998043,8999518046,251,48216,0,1,1,0
82025296000000,82025796000000,500.0,4096,68,67,1124873,1124939,8999526047,9000054043,230,48284,0,1,1,0
82025828000000,82026328000000,500.0,4096,69,68,1124940,1125007,9000062043,9000598044,287,48353,0,1,1,0
82026375000000,82026875000000,500.0,4096,68,68,1125008,1125075,9000606046,9001142043,262,48421,0,1,1,0
82026906000000,82027406000000,500.0,4096,68,66,1125076,1125141,9001150044,9001670043,188,48489,0,1,1,0
82027437000000,82027953000000,516.0,4096,70,68,1125142,1125209,9001678043,9002214043,335,48559,0,1,1,0
82027984000000,82028484000000,500.0,4096,68,67,1125210,1125276,9002222047,9002750043,428,48627,0,1,1,0
82028546000000,82029031000000,485.0,4096,68,68,1125277,1125344,9002758043,9003294043,202,48695,0,1,1,0
82029062000000,82029578000000,516.0,4096,68,67,1125345,1125411,9003302043,9003830044,352,48763,0,1,1,0
82029609000000,82030109000000,500.0,4096,68,67,1125412,1125478,9003838043,9004366047,278,48831,0,1,1,0
82030140000000,82030656000000,516.0,4096,68,68,1125479,1125546,9004374046,9004910045,204,48899,0,1,1,0
82030671000000,82031187000000,516.0,4096,69,68,1125547,1125614,9004918046,9005454046,321,48968,0,1,1,0
82031234000000,82031718000000,484.0,4096,68,67,1125615,1125681,9005462043,9005990044,326,49036,0,1,1,0
82031765000000,82032265000000,500.0,4096,68,67,1125682,1125748,9005998043,9006526045,256,49104,0,1,1,0
82032296000000,82032812000000,516.0,4096,69,68,1125749,1125816,9006534043,9007070044,263,49173,0,1,1,0
82032843000000,82033343000000,500.0,4096,68,67,1125817,1125883,9007078046,9007606045,247,49241,0,1,1,0
82033375000000,82033875000000,500.0,4096,68,67,1125884,1125950,9007614043,9008142047,182,49309,0,1,1,0
82033906000000,82034421000000,515.0,4096,68,68,1125951,1126018,9008150046,9008686047,280,49377,0,1,1,0
82034468000000,82034968000000,500.0,4096,69,68,1126019,1126086,9008694043,9009230044,255,49446,0,1,1,0
82035000000000,82035500000000,500.0,4096,68,67,1126087,1126153,9009238046,9009766046,228,49514,0,1,1,0
82035531000000,82036046000000,515.0,4096,68,68,1126154,1126221,9009774043,9010310043,251,49582,0,1,1,0
82036078000000,82036593000000,515.0,4096,68,67,1126222,1126288,9010318043,9010846043,223,49650,0,1,1,0
82036609000000,82037125000000,516.0,4096,69,67,1126289,1126355,9010854043,9011382044,283,49719,0,1,1,0
82037156000000,82037671000000,515.0,4096,68,68,1126356,1126423,9011390043,9011926044,312,49787,0,1,1,0
82037703000000,82038203000000,500.0,4096,68,67,1126424,1126490,9011934043,9012462043,168,49855,0,1,1,0
82038218000000,82038750000000,532.0,4096,69,68,1126491,1126558,9012470043,9013006043,405,49924,0,1,1,0
82038796000000,82039281000000,485.0,4096,68,67,1126559,1126625,9013014044,9013542043,273,49992,0,1,1,0
82039312000000,82039828000000,516.0,4096,68,68,1126626,1126693,9013550043,9014086043,267,50060,0,1,1,0
82039859000000,82040359000000,500.0,4096,68,67,1126694,1126760,9014094043,9014622044,236,50128,0,1,1,0
82040390000000,82040890000000,500.0,4096,67,66,1126761,1126826,9014630046,9015150047,346,50195,0,1,1,0
82040937000000,82041421000000,484.0,4096,67,67,1126827,1126893,9015158043,9015686046,164,50262,0,1,1,0
82041453000000,82041953000000,500.0,4096,68,66,1126894,1126959,9015694046,9016214046,1808,50330,0,1,1,0
82042187000000,82042484000000,297.0,4096,67,66,1126960,1127025,9016222043,9016742043,292,50397,0,1,1,0
82042515000000,82043015000000,500.0,4096,67,67,1127026,1127092,9016750045,9017278045,215,50464,0,1,1,0
82043046000000,82043531000000,485.0,4096,66,65,1127093,1127157,9017286043,9017798043,260,50530,0,1,1,0
82043578000000,82044062000000,484.0,4096,68,67,1127158,1127224,9017806046,9018334043,209,50598,0,1,1,0
82044093000000,82044593000000,500.0,4096,66,66,1127225,1127290,9018342044,9018862047,362,50664,0,1,1,0
82044640000000,82045125000000,485.0,4096,67,66,1127291,1127356,9018870045,9019390047,214,50731,0,1,1,0
82045156000000,82045656000000,500.0,4096,67,66,1127357,1127422,9019398047,9019918043,243,50798,0,1,1,0
82045687000000,82046203000000,516.0,4096,68,68,1127423,1127490,9019926043,9020462043,237,50866,0,1,1,0
82046234000000,82046734000000,500.0,4096,68,67,1127491,1127557,9020470043,9020998043,297,50934,0,1,1,0
82046781000000,82047265000000,484.0,4096,68,67,1127558,1127624,9021006043,9021534044,272,51002,0,1,1,0
82047312000000,82047812000000,500.0,4096,69,67,1127625,1127691,9021542043,9022070043,277,51071,0,1,1,0
82047843000000,82048343000000,500.0,4096,68,67,1127692,1127758,9022078046,9022606043,208,51139,0,1,1,0
82048359000000,82048890000000,531.0,4096,68,68,1127759,1127826,9022614046,9023150045,270,51207,0,1,1,0
82048921000000,82049421000000,500.0,4096,68,67,1127827,1127893,9023158044,9023686045,311,51275,0,1,1,0
82049468000000,82049953000000,485.0,4096,68,67,1127894,1127960,9023694044,9024222046,197,51343,0,1,1,0
82049984000000,82050500000000,516.0,4096,68,68,1127961,1128028,9024230043,9024766043,390,51411,0,1,1,0
82050546000000,82051031000000,485.0,4096,68,67,1128029,1128095,9024774047,9025302043,245,51479,0,1,1,0
82051078000000,82051578000000,500.0,4096,68,67,1128096,1128162,9025310044,9025838043,170,51547,0,1,1,0
82051593000000,82052109000000,516.0,4096,68,67,1128163,1128229,9025846043,9026374043,252,51615,0,1,1,0
82052140000000,82052656000000,516.0,4096,69,68,1128230,1128297,9026382043,9026918043,262,51684,0,1,1,0
82052687000000,82053187000000,500.0,4096,67,66,1128298,1128363,9026926046,9027446043,185,51751,0,1,1,0
82053203000000,82053734000000,531.0,4096,68,68,1128364,1128431,9027454043,9027990047,430,51819,0,1,1,0
82053781000000,82054265000000,484.0,4096,69,68,1128432,1128499,9027998043,9028534044,256,51888,0,1,1,0
82054296000000,82054812000000,516.0,4096,68,67,1128500,1128566,9028542046,9029070043,359,51956,0,1,1,0
82054843000000,82055343000000,500.0,4096,68,68,1128567,1128634,9029078043,9029614043,328,52024,0,1,1,0
82055390000000,82055890000000,500.0,4096,68,67,1128635,1128701,9029622047,9030150045,153,52092,0,1,1,0
82055906000000,82056421000000,515.0,4096,68,67,1128702,1128768,9030158044,9030686043,269,52160,0,1,1,0
82056453000000,82056968000000,515.0,4096,68,67,1128769,1128835,9030694043,9031222043,263,52228,0,1,1,0
82057000000000,82057500000000,500.0,4096,68,67,1128836,1128902,9031230045,9031758043,245,52296,0,1,1,0
82057531000000,82058031000000,500.0,4096,68,67,1128903,1128969,9031766043,9032294043,230,52364,0,1,1,0
82058062000000,82058578000000,516.0,4096,68,68,1128970,1129037,9032302044,9032838046,253,52432,0,1,1,0
82058609000000,82059125000000,516.0,4096,69,68,1129038,1129105,9032846043,9033382043,294,52501,0,1,1,0
82059156000000,82059656000000,500.0,4096,67,67,1129106,1129172,9033390044,9033918043,310,52568,0,1,1,0
82059687000000,82060203000000,516.0,4096,69,68,1129173,1129240,9033926043,9034462043,241,52637,0,1,1,0
82060234000000,82060734000000,500.0,4096,68,67,1129241,1129307,9034470044,9034998043,423,52705,0,1,1,0
82060796000000,82061281000000,485.0,4096,68,68,1129308,1129375,9035006045,9035542043,325,52773,0,1,1,0
82061312000000,82061812000000,500.0,4096,68,67,1129376,1129442,9035550045,9036078043,265,52841,0,1,1,0
82061843000000,82062359000000,516.0,4096,69,67,1129443,1129509,9036086045,9036614045,1906,52910,0,1,1,0
82062609000000,82062890000000,281.0,4096,68,67,1129510,1129576,9036622044,9037150044,318,52978,0,1,1,0
82062937000000,82063437000000,500.0,4096,68,68,1129577,1129644,9037158043,9037694043,301,53046,0,1,1,0
82063468000000,82063968000000,500.0,4096,69,68,1129645,1129712,9037702043,9038238043,276,53115,0,1,1,0
82064000000000,82064515000000,515.0,4096,68,67,1129713,1129779,9038246046,9038774043,248,53183,0,1,1,0
82064546000000,82065046000000,500.0,4096,68,68,1129780,1129847,9038782046,9039318047,284,53251,0,1,1,0
82065093000000,82065593000000,500.0,4096,68,67,1129848,1129914,9039326043,9039854043,268,53319,0,1,1,0
82065625000000,82066140000000,515.0,4096,69,68,1129915,1129982,9039862047,9040398046,265,53388,0,1,1,0
82066171000000,82066671000000,500.0,4096,68,68,1129983,1130050,9040406044,9040942045,318,53456,0,1,1,0
82066718000000,82067203000000,485.0,4096,68,66,1130051,1130116,9040950043,9041470043,256,53524,0,1,1,0
82067234000000,82067750000000,516.0,4096,69,67,1130117,1130183,9041478043,9042006043,440,53593,0,1,1,0
82067812000000,82068281000000,469.0,4096,69,68,1130184,1130251,9042014044,9042550043,327,53662,0,1,1,0
82068328000000,82068828000000,500.0,4096,68,68,1130252,1130319,9042558045,9043094043,235,53730,0,1,1,0
82068859000000,82069359000000,500.0,4096,68,67,1130320,1130386,9043102045,9043630044,320,53798,0,1,1,0
82069406000000,82069906000000,500.0,4096,68,67,1130387,1130453,9043638043,9044166047,380,53866,0,1,1,0
82069953000000,82070453000000,500.0,4096,68,68,1130454,1130521,9044174043,9044710047,238,53934,0,1,1,0
82070468000000,82070968000000,500.0,4096,67,66,1130522,1130587,9044718044,9045238043,287,54001,0,1,1,0
82071015000000,82071500000000,485.0,4096,67,66,1130588,1130653,9045246043,9045766043,291,54068,0,1,1,0
82071546000000,82072031000000,485.0,4096,68,66,1130654,1130719,9045774046,9046294043,202,54136,0,1,1,0
82072062000000,82072578000000,516.0,4096,68,68,1130720,1130787,9046302043,9046838046,261,54204,0,1,1,0
82072609000000,82073109000000,500.0,4096,68,67,1130788,1130854,9046846043,9047374043,205,54272,0,1,1,0
82073140000000,82073640000000,500.0,4096,68,67,1130855,1130921,9047382047,9047910047,267,54340,0,1,1,0
82073687000000,82074171000000,484.0,4096,67,66,1130922,1130987,9047918047,9048438044,255,54407,0,1,1,0
82074218000000,82074718000000,500.0,4096,68,68,1130988,1131055,9048446043,9048982043,251,54475,0,1,1,0
82074750000000,82075265000000,515.0,4096,70,69,1131056,1131124,9048990043,9049534043,332,54545,0,1,1,0
82075312000000,82075812000000,500.0,4096,68,68,1131125,1131192,9049542043,9050078043,412,54613,0,1,1,0
82075859000000,82076359000000,500.0,4096,68,67,1131193,1131259,9050086046,9050614043,278,54681,0,1,1,0
82076390000000,82076906000000,516.0,4096,70,69,1131260,1131328,9050622043,9051166046,231,54751,0,1,1,0
82076937000000,82077437000000,500.0,4096,69,67,1131329,1131395,9051174045,9051702045,358,54820,0,1,1,0
82077484000000,82077984000000,500.0,4096,68,68,1131396,1131463,9051710043,9052246043,298,54888,0,1,1,0
82078015000000,82078531000000,516.0,4096,69,68,1131464,1131531,9052254043,9052790047,233,54957,0,1,1,0
82078562000000,82079078000000,516.0,4096,69,68,1131532,1131599,9052798043,9053334043,344,55026,0,1,1,0
82079109000000,82079609000000,500.0,4096,68,67,1131600,1131666,9053342046,9053870047,330,55094,0,1,1,0
82079656000000,82080156000000,500.0,4096,68,68,1131667,1131734,9053878046,9054414044,287,55162,0,1,1,0
82080187000000,82080687000000,500.0,4096,69,68,1131735,1131802,9054422043,9054958045,269,55231,0,1,1,0
82080734000000,82081234000000,500.0,4096,68,67,1131803,1131869,9054966045,9055494043,294,55299,0,1,1,0
82081265000000,82081781000000,516.0,4096,68,68,1131870,1131937,9055502045,9056038043,295,55367,0,1,1,0
82081812000000,82082312000000,500.0,4096,69,67,1131938,1132004,9056046047,9056574043,2226,55436,0,1,1,0
82082609000000,82082859000000,250.0,4096,69,68,1132005,1132072,9056582043,9057118043,411,55505,0,1,1,0
82082906000000,82083390000000,484.0,4096,68,68,1132073,1132140,9057126043,9057662045,236,55573,0,1,1,0
82083421000000,82083937000000,516.0,4096,68,67,1132141,1132207,9057670043,9058198047,277,55641,0,1,1,0
82083968000000,82084468000000,500.0,4096,67,66,1132208,1132273,9058206044,9058726043,358,55708,0,1,1,0
82084515000000,82085000000000,485.0,4096,67,67,1132274,1132340,9058734043,9059262043,195,55775,0,1,1,0
82085031000000,82085531000000,500.0,4096,67,66,1132341,1132406,9059270047,9059790047,295,55842,0,1,1,0
82085562000000,82086062000000,500.0,4096,67,66,1132407,1132472,9059798043,9060318043,189,55909,0,1,1,0
82086078000000,82086593000000,515.0,4096,67,67,1132473,1132539,9060326047,9060854043,481,55976,0,1,1,0
82086656000000,82087125000000,469.0,4096,68,66,1132540,1132605,9060862043,9061382044,306,56044,0,1,1,0
82087156000000,82087640000000,484.0,4096,68,66,1132606,1132671,9061390047,9061910043,189,56112,0,1,1,0
82087671000000,82088171000000,500.0,4096,67,66,1132672,1132737,9061918046,9062438043,275,56179,0,1,1,0
82088218000000,82088703000000,485.0,4096,67,67,1132738,1132804,9062446043,9062974047,291,56246,0,1,1,0
82088750000000,82089250000000,500.0,4096,68,67,1132805,1132871,9062982043,9063510043,322,56314,0,1,1,0
82089281000000,82089781000000,500.0,4096,68,67,1132872,1132938,9063518043,9064046043,440,56382,0,1,1,0
82089843000000,82090328000000,485.0,4096,68,68,1132939,1133006,9064054043,9064590047,259,56450,0,1,1,0
82090359000000,82090859000000,500.0,4096,68,67,1133007,1133073,9064598043,9065126043,248,56518,0,1,1,0
82090906000000,82091406000000,500.0,4096,69,68,1133074,1133141,9065134045,9065670043,292,56587,0,1,1,0
82091437000000,82091937000000,500.0,4096,68,67,1133142,1133208,9065678044,9066206043,224,56655,0,1,1,0
82091968000000,82092484000000,516.0,4096,69,68,1133209,1133276,9066214043,9066750046,286,56724,0,1,1,0
82092515000000,82093015000000,500.0,4096,67,66,1133277,1133342,9066758043,9067278043,262,56791,0,1,1,0
82093046000000,82093546000000,500.0,4096,68,67,1133343,1133409,9067286043,9067814047,213,56859,0,1,1,0
82093578000000,82094093000000,515.0,4096,67,67,1133410,1133476,9067822043,9068350043,292,56926,0,1,1,0
82094125000000,82094625000000,500.0,4096,67,66,1133477,1133542,9068358043,9068878043,369,56993,0,1,1,0
82094671000000,82095156000000,485.0,4096,68,67,1133543,1133609,9068886046,9069414045,197,57061,0,1,1,0
82095171000000,82095687000000,516.0,4096,68,68,1133610,1133677,9069422043,9069958043,327,57129,0,1,1,0
82095734000000,82096218000000,484.0,4096,67,66,1133678,1133743,9069966043,9070486047,294,57196,0,1,1,0
82096265000000,82096750000000,485.0,4096,67,66,1133744,1133809,9070494043,9071014044,184,57263,0,1,1,0
82096781000000,82097281000000,500.0,4096,68,66,1133810,1133875,9071022043,9071542045,260,57331,0,1,1,0
82097312000000,82097828000000,516.0,4096,68,68,1133876,1133943,9071550044,9072086046,316,57399,0,1,1,0
82097859000000,82098375000000,516.0,4096,69,68,1133944,1134011,9072094043,9072630043,289,57468,0,1,1,0
82098406000000,82098906000000,500.0,4096,69,68,1134012,1134079,9072638046,9073174045,265,57537,0,1,1,0
82098953000000,82099453000000,500.0,4096,68,68,1134080,1134147,9073182043,9073718043,220,57605,0,1,1,0
82099484000000,82100000000000,516.0,4096,70,69,1134148,1134216,9073726043,9074270046,363,57675,0,1,1,0
82100046000000,82100546000000,500.0,4096,69,68,1134217,1134284,9074278045,9074814044,316,57744,0,1,1,0
82100593000000,82101093000000,500.0,4096,69,68,1134285,1134352,9074822047,9075358044,220,57813,0,1,1,0
82101125000000,82101640000000,515.0,4096,68,68,1134353,1134420,9075366045,9075902044,252,57881,0,1,1,0
82101671000000,82102187000000,516.0,4096,70,68,1134421,1134488,9075910043,9076446044,303,57951,0,1,1,0
82102218000000,82102718000000,500.0,4096,68,67,1134489,1134555,9076454045,9076982046,2236,58019,0,1,1,0
82103015000000,82103265000000,250.0,4096,68,67,1134556,1134622,9076990045,9077518044,227,58087,0,1,1,0
82103281000000,82103796000000,515.0,4096,68,68,1134623,1134690,9077526045,9078062043,435,58155,0,1,1,0
82103859000000,82104343000000,484.0,4096,69,68,1134691,1134758,9078070046,9078606043,298,58224,0,1,1,0
82104390000000,82104875000000,485.0,4096,68,67,1134759,1134825,9078614043,9079142044,304,58292,0,1,1,0
82104921000000,82105421000000,500.0,4096,68,68,1134826,1134893,9079150043,9079686043,291,58360,0,1,1,0
82105453000000,82105968000000,515.0,4096,69,68,1134894,1134961,9079694043,9080230047,236,58429,0,1,1,0
82106000000000,82106515000000,515.0,4096,69,68,1134962,1135029,9080238043,9080774046,212,58498,0,1,1,0
82106531000000,82107046000000,515.0,4096,68,66,1135030,1135095,9080782043,9081302045,248,58566,0,1,1,0
82107078000000,82107593000000,515.0,4096,68,68,1135096,1135163,9081310044,9081846043,353,58634,0,1,1,0
82107625000000,82108125000000,500.0,4096,69,67,1135164,1135230,9081854043,9082382044,275,58703,0,1,1,0
82108156000000,82108656000000,500.0,4096,68,67,1135231,1135297,9082390043,9082918043,282,58771,0,1,1,0
82108703000000,82109203000000,500.0,4096,69,68,1135298,1135365,9082926045,9083462043,261,58840,0,1,1,0
82109234000000,82109750000000,516.0,4096,68,68,1135366,1135433,9083470043,9084006046,337,58908,0,1,1,0
82109781000000,82110281000000,500.0,4096,69,68,1135434,1135501,9084014043,9084550043,320,58977,0,1,1,0
82110328000000,82110828000000,500.0,4096,68,67,1135502,1135568,9084558043,9085086043,263,59045,0,1,1,0
82110859000000,82111375000000,516.0,4096,69,68,1135569,1135636,9085094047,9085630043,357,59114,0,1,1,0
82111406000000,82111906000000,500.0,4096,68,68,1135637,1135704,9085638043,9086174044,466,59182,0,1,1,0
82111953000000,82112437000000,484.0,4096,68,66,1135705,1135770,9086182043,9086702045,229,59250,0,1,1,0
82112468000000,82112984000000,516.0,4096,68,67,1135771,1135837,9086710043,9087238043,225,59318,0,1,1,0
82113015000000,82113515000000,500.0,4096,69,68,1135838,1135905,9087246043,9087782043,291,59387,0,1,1,0
82113562000000,82114062000000,500.0,4096,68,67,1135906,1135972,9087790044,9088318045,205,59455,0,1,1,0
82114078000000,82114609000000,531.0,4096,68,68,1135973,1136040,9088326047,9088862044,377,59523,0,1,1,0
82114656000000,82115140000000,484.0,4096,68,67,1136041,1136107,9088870044,9089398045,323,59591,0,1,1,0
82115171000000,82115671000000,500.0,4096,67,67,1136108,1136174,9089406043,9089934043,200,59658,0,1,1,0
82115687000000,82116203000000,516.0,4096,67,66,1136175,1136240,9089942043,9090462043,249,59725,0,1,1,0
82116234000000,82116734000000,500.0,4096,68,67,1136241,1136307,9090470043,9090998043,209,59793,0,1,1,0
82116765000000,82117265000000,500.0,4096,67,66,1136308,1136373,9091006046,9091526043,273,59860,0,1,1,0
82117296000000,82117796000000,500.0,4096,67,66,1136374,1136439,9091534043,9092054043,257,59927,0,1,1,0
82117828000000,82118328000000,500.0,4096,67,66,1136440,1136505,9092062043,9092582043,195,59994,0,1,1,0
82118343000000,82118859000000,516.0,4096,68,67,1136506,1136572,9092590043,9093118047,386,60062,0,1,1,0
82118906000000,82119390000000,484.0,4096,67,66,1136573,1136638,9093126043,9093646044,192,60129,0,1,1,0
82119406000000,82119921000000,515.0,4096,69,68,1136639,1136706,9093654043,9094190044,326,60198,0,1,1,0
82119968000000,82120468000000,500.0,4096,67,67,1136707,1136773,9094198044,9094726043,418,60265,0,1,1,0
82120531000000,82121000000000,469.0,4096,69,68,1136774,1136841,9094734045,9095270047,212,60334,0,1,1,0
82121031000000,82121546000000,515.0,4096,69,68,1136842,1136909,9095278044,9095814043,328,60403,0,1,1,0
82121593000000,82122078000000,485.0,4096,68,66,1136910,1136975,9095822044,9096342043,311,60471,0,1,1,0
82122125000000,82122625000000,500.0,4096,68,68,1136976,1137043,9096350045,9096886043,270,60539,0,1,1,0
82122656000000,82123171000000,515.0,4096,69,68,1137044,1137111,9096894043,9097430046,2053,60608,0,1,1,0
82123437000000,82123703000000,266.0,4096,68,67,1137112,1137178,9097438043,9097966045,318,60676,0,1,1,0
82123750000000,82124234000000,484.0,4096,68,67,1137179,1137245,9097974043,9098502043,188,60744,0,1,1,0
82124265000000,82124781000000,516.0,4096,69,68,1137246,1137313,9098510046,9099046046,330,60813,0,1,1,0
82124828000000,82125328000000,500.0,4096,68,68,1137314,1137381,9099054043,9099590046,254,60881,0,1,1,0
82125359000000,82125875000000,516.0,4096,68,67,1137382,1137448,9099598044,9100126043,273,60949,0,1,1,0
82125906000000,82126390000000,484.0,4096,68,67,1137449,1137515,9100134043,9100662043,268,61017,0,1,1,0
82126437000000,82126937000000,500.0,4096,67,67,1137516,1137582,9100670043,9101198043,186,61084,0,1,1,0
82126953000000,82127453000000,500.0,4096,67,65,1137583,1137647,9101206045,9101718044,312,61151,0,1,1,0
82127500000000,82127984000000,484.0,4096,68,67,1137648,1137714,9101726047,9102254044,296,61219,0,1,1,0
82128031000000,82128515000000,484.0,4096,67,66,1137715,1137780,9102262046,9102782043,274,61286,0,1,1,0
82128562000000,82129062000000,500.0,4096,67,67,1137781,1137847,9102790043,9103318045,324,61353,0,1,1,0
82129093000000,82129578000000,485.0,4096,67,66,1137848,1137913,9103326043,9103846047,288,61420,0,1,1,0
82129625000000,82130109000000,484.0,4096,67,66,1137914,1137979,9103854044,9104374043,293,61487,0,1,1,0
82130156000000,82130640000000,484.0,4096,67,66,1137980,1138045,9104382046,9104902043,320,61554,0,1,1,0
82130687000000,82131171000000,484.0,4096,67,67,1138046,1138112,9104910043,9105438046,247,61621,0,1,1,0
82131203000000,82131718000000,515.0,4096,68,67,1138113,1138179,9105446047,9105974045,254,61689,0,1,1,0
82131750000000,82132250000000,500.0,4096,69,67,1138180,1138246,9105982043,9106510043,297,61758,0,1,1,0
82132296000000,82132781000000,485.0,4096,68,68,1138247,1138314,9106518043,9107054044,192,61826,0,1,1,0
82132812000000,82133343000000,531.0,4096,69,68,1138315,1138382,9107062045,9107598044,332,61895,0,1,1,0
82133390000000,82133875000000,485.0,4096,68,67,1138383,1138449,9107606047,9108134043,372,61963,0,1,1,0
82133921000000,82134406000000,485.0,4096,68,67,1138450,1138516,9108142044,9108670043,191,62031,0,1,1,0
82134437000000,82134953000000,516.0,4096,69,69,1138517,1138585,9108678045,9109222043,319,62100,0,1,1,0
82135000000000,82135500000000,500.0,4096,68,67,1138586,1138652,9109230043,9109758045,265,62168,0,1,1,0
82135531000000,82136046000000,515.0,4096,69,69,1138653,1138721,9109766046,9110310043,263,62237,0,1,1,0
82136078000000,82136578000000,500.0,4096,67,66,1138722,1138787,9110318043,9110838043,232,62304,0,1,1,0
82136609000000,82137093000000,484.0,4096,68,66,1138788,1138853,9110846043,9111366043,300,62372,0,1,1,0
82137140000000,82137640000000,500.0,4096,67,66,1138854,1138919,9111374047,9111894044,174,62439,0,1,1,0
82137656000000,82138171000000,515.0,4096,67,67,1138920,1138986,9111902043,9112430043,205,62506,0,1,1,0
82138203000000,82138703000000,500.0,4096,68,67,1138987,1139053,9112438043,9112966047,179,62574,0,1,1,0
82138718000000,82139218000000,500.0,4096,66,65,1139054,1139118,9112974047,9113486047,245,62640,0,1,1,0
82139265000000,82139765000000,500.0,4096,67,67,1139119,1139185,9113494046,9114022046,291,62707,0,1,1,0
82139796000000,82140296000000,500.0,4096,68,67,1139186,1139252,9114030043,9114558043,174,62775,0,1,1,0
82140312000000,82140828000000,516.0,4096,67,66,1139253,1139318,9114566043,9115086043,274,62842,0,1,1,0
82140859000000,82141359000000,500.0,4096,68,68,1139319,1139386,9115094044,9115630043,225,62910,0,1,1,0
82141390000000,82141906000000,516.0,4096,68,67,1139387,1139453,9115638043,9116166045,380,62978,0,1,1,0
82141953000000,82142437000000,484.0,4096,68,67,1139454,1139520,9116174043,9116702044,257,63046,0,1,1,0
82142468000000,82142984000000,516.0,4096,69,68,1139521,1139588,9116710043,9117246045,175,63115,0,1,1,0
82143000000000,82143515000000,515.0,4096,67,67,1139589,1139655,9117254043,9117782045,2013,63182,0,1,1,0
82143781000000,82144062000000,281.0,4096,69,68,1139656,1139723,9117790043,9118326043,261,63251,0,1,1,0
82144093000000,82144593000000,500.0,4096,68,67,1139724,1139790,9118334044,9118862044,331,63319,0,1,1,0
82144640000000,82145140000000,500.0,4096,68,68,1139791,1139858,9118870045,9119406046,184,63387,0,1,1,0
82145171000000,82145687000000,516.0,4096,68,67,1139859,1139925,9119414043,9119942043,321,63455,0,1,1,0
82145718000000,82146218000000,500.0,4096,69,68,1139926,1139993,9119950043,9120486044,173,63524,0,1,1,0
82146250000000,82146765000000,515.0,4096,68,68,1139994,1140061,9120494047,9121030043,264,63592,0,1,1,0
82146796000000,82147296000000,500.0,4096,68,66,1140062,1140127,9121038043,9121558043,284,63660,0,1,1,0
82147328000000,82147828000000,500.0,4096,68,66,1140128,1140193,9121566043,9122086043,189,63728,0,1,1,0
82147859000000,82148375000000,516.0,4096,68,68,1140194,1140261,9122094046,9122630043,276,63796,0,1,1,0
82148406000000,82148906000000,500.0,4096,68,67,1140262,1140328,9122638043,9123166043,393,63864,0,1,1,0
82148953000000,82149437000000,484.0,4096,67,66,1140329,1140394,9123174044,9123694043,282,63931,0,1,1,0
82149468000000,82149968000000,500.0,4096,68,68,1140395,1140462,9123702045,9124238043,354,63999,0,1,1,0
82150015000000,82150515000000,500.0,4096,68,67,1140463,1140529,9124246046,9124774045,225,64067,0,1,1,0
82150546000000,82151046000000,500.0,4096,68,67,1140530,1140596,9124782046,9125310043,199,64135,0,1,1,0
82151078000000,82151593000000,515.0,4096,67,67,1140597,1140663,9125318043,9125846043,330,64202,0,1,1,0
82151625000000,82152125000000,500.0,4096,69,67,1140664,1140730,9125854047,9126382046,308,64271,0,1,1,0
82152156000000,82152656000000,500.0,4096,68,67,1140731,1140797,9126390043,9126918047,198,64339,0,1,1,0
82152671000000,82153203000000,532.0,4096,68,68,1140798,1140865,9126926043,9127462043,325,64407,0,1,1,0
82153250000000,82153750000000,500.0,4096,69,68,1140866,1140933,9127470043,9128006043,256,64476,0,1,1,0
82153781000000,82154296000000,515.0,4096,69,68,1140934,1141001,9128014045,9128550043,245,64545,0,1,1,0
82154328000000,82154828000000,500.0,4096,68,68,1141002,1141069,9128558043,9129094045,361,64613,0,1,1,0
82154875000000,82155375000000,500.0,4096,70,69,1141070,1141138,9129102045,9129646046,236,64683,0,1,1,0
82155406000000,82155906000000,500.0,4096,67,66,1141139,1141204,9129654043,9130174043,277,64750,0,1,1,0
82155953000000,82156453000000,500.0,4096,68,68,1141205,1141272,9130182045,9130718046,307,64818,0,1,1,0
82156500000000,82156968000000,468.0,4096,67,65,1141273,1141337,9130726047,9131238043,251,64885,0,1,1,0
82157015000000,82157515000000,500.0,4096,67,67,1141338,1141404,9131246043,9131774043,201,64952,0,1,1,0
82157546000000,82158046000000,500.0,4096,67,66,1141405,1141470,9131782047,9132302046,235,65019,0,1,1,0
82158078000000,82158578000000,500.0,4096,67,67,1141471,1141537,9132310043,9132838046,211,65086,0,1,1,0
82158609000000,82159109000000,500.0,4096,67,66,1141538,1141603,9132846047,9133366043,252,65153,0,1,1,0
82159140000000,82159640000000,500.0,4096,67,66,1141604,1141669,9133374043,9133894043,305,65220,0,1,1,0
82159671000000,82160171000000,500.0,4096,67,67,1141670,1141736,9133902043,9134430044,257,65287,0,1,1,0
82160203000000,82160687000000,484.0,4096,67,66,1141737,1141802,9134438043,9134958043,293,65354,0,1,1,0
82160734000000,82161218000000,484.0,4096,67,66,1141803,1141868,9134966047,9135486045,340,65421,0,1,1,0
82161265000000,82161750000000,485.0,4096,67,66,1141869,1141934,9135494043,9136014045,148,65488,0,1,1,0
82161781000000,82162296000000,515.0,4096,68,67,1141935,1142001,9136022043,9136550045,254,65556,0,1,1,0
82162328000000,82162828000000,500.0,4096,69,68,1142002,1142069,9136558043,9137094043,159,65625,0,1,1,0
82162859000000,82163359000000,500.0,4096,68,67,1142070,1142136,9137102046,9137630045,335,65693,0,1,1,0
82163406000000,82163906000000,500.0,4096,68,68,1142137,1142204,9137638044,9138174043,219,65761,0,1,1,0
82163937000000,82164453000000,516.0,4096,68,67,1142205,1142271,9138182043,9138710047,2031,65829,0,1,1,0
82164718000000,82164984000000,266.0,4096,69,68,1142272,1142339,9138718043,9139254045,523,65898,0,1,1,0
82165062000000,82165531000000,469.0,4096,68,67,1142340,1142406,9139262046,9139790043,281,65966,0,1,1,0
82165562000000,82166078000000,516.0,4096,68,68,1142407,1142474,9139798043,9140334044,259,66034,0,1,1,0
82166109000000,82166609000000,500.0,4096,68,67,1142475,1142541,9140342043,9140870043,252,66102,0,1,1,0
82166640000000,82167140000000,500.0,4096,69,67,1142542,1142608,9140878045,9141406046,249,66171,0,1,1,0
82167187000000,82167687000000,500.0,4096,69,68,1142609,1142676,9141414044,9141950045,200,66240,0,1,1,0
82167718000000,82168234000000,516.0,4096,69,68,1142677,1142744,9141958043,9142494043,260,66309,0,1,1,0
82168265000000,82168781000000,516.0,4096,69,68,1142745,1142812,9142502045,9143038043,265,66378,0,1,1,0
82168812000000,82169312000000,500.0,4096,67,67,1142813,1142879,9143046043,9143574046,236,66445,0,1,1,0
82169343000000,82169859000000,516.0,4096,70,69,1142880,1142948,9143582043,9144126044,304,66515,0,1,1,0
82169906000000,82170390000000,484.0,4096,67,66,1142949,1143014,9144134047,9144654046,240,66582,0,1,1,0
82170421000000,82170937000000,516.0,4096,69,69,1143015,1143083,9144662043,9145206045,188,66651,0,1,1,0
82170968000000,82171468000000,500.0,4096,67,66,1143084,1143149,9145214043,9145734043,360,66718,0,1,1,0
82171515000000,82172000000000,485.0,4096,67,65,1143150,1143214,9145742043,9146254043,406,66785,0,1,1,0
82172046000000,82172531000000,485.0,4096,68,68,1143215,1143282,9146262043,9146798043,216,66853,0,1,1,0
82172562000000,82173062000000,500.0,4096,66,65,1143283,1143347,9146806047,9147318047,525,66919,0,1,1,0
82173125000000,82173593000000,468.0,4096,67,67,1143348,1143414,9147326043,9147854045,298,66986,0,1,1,0
82173640000000,82174125000000,485.0,4096,68,67,1143415,1143481,9147862046,9148390043,153,67054,0,1,1,0
82174140000000,82174656000000,516.0,4096,66,66,1143482,1143547,9148398043,9148918047,327,67120,0,1,1,0
82174703000000,82175187000000,484.0,4096,67,66,1143548,1143613,9148926043,9149446043,253,67187,0,1,1,0
82175218000000,82175718000000,500.0,4096,68,67,1143614,1143680,9149454046,9149982044,285,67255,0,1,1,0
82175750000000,82176265000000,515.0,4096,68,68,1143681,1143748,9149990043,9150526043,339,67323,0,1,1,0
82176296000000,82176796000000,500.0,4096,68,67,1143749,1143815,9150534047,9151062045,157,67391,0,1,1,0
82176828000000,82177328000000,500.0,4096,69,67,1143816,1143882,9151070043,9151598045,268,67460,0,1,1,0
82177375000000,82177875000000,500.0,4096,68,68,1143883,1143950,9151606047,9152142043,296,67528,0,1,1,0
82177906000000,82178421000000,515.0,4096,68,67,1143951,1144017,9152150043,9152678047,151,67596,0,1,1,0
82178437000000,82178953000000,516.0,4096,69,68,1144018,1144085,9152686043,9153222044,331,67665,0,1,1,0
82179000000000,82179500000000,500.0,4096,68,67,1144086,1144152,9153230044,9153758043,376,67733,0,1,1,0
82179546000000,82180046000000,500.0,4096,68,68,1144153,1144220,9153766043,9154302045,216,67801,0,1,1,0
82180078000000,82180578000000,500.0,4096,69,68,1144221,1144288,9154310043,9154846045,283,67870,0,1,1,0
82180625000000,82181125000000,500.0,4096,69,68,1144289,1144356,9154854044,9155390046,277,67939,0,1,1,0
82181156000000,82181656000000,500.0,4096,67,67,1144357,1144423,9155398045,9155926043,180,68006,0,1,1,0
82181687000000,82182187000000,500.0,4096,67,65,1144424,1144488,9155934043,9156446043,268,68073,0,1,1,0
82182218000000,82182718000000,500.0,4096,67,66,1144489,1144554,9156454043,9156974044,209,68140,0,1,1,0
82182734000000,82183265000000,531.0,4096,66,66,1144555,1144623,9156982046,9157526046,866,68206,1,1,2,3
82183390000000,82183828000000,438.0,4096,65,65,1144624,1144694,9157534046,9158094044,307,68271,3,1,4,9
82183875000000,82184359000000,484.0,4096,67,66,1144695,1144760,9158102043,9158622043,2115,68338,3,1,4,9
82184640000000,82184890000000,250.0,4096,68,67,1144761,1144827,9158630043,9159158047,304,68406,3,1,4,9
82184937000000,82185437000000,500.0,4096,67,67,1144828,1144894,9159166046,9159694047,230,68473,3,1,4,9
82185468000000,82185968000000,500.0,4096,68,67,1144895,1144961,9159702043,9160230043,207,68541,3,1,4,9
82186000000000,82186500000000,500.0,4096,68,67,1144962,1145028,9160238045,9160766047,371,68609,3,1,4,9
82186562000000,82187046000000,484.0,4096,69,68,1145029,1145096,9160774045,9161310045,317,68678,3,1,4,9
82187093000000,82187593000000,500.0,4096,69,68,1145097,1145164,9161318043,9161854044,249,68747,3,1,4,9
82187609000000,82188125000000,516.0,4096,69,67,1145165,1145231,9161862043,9162390047,509,68816,3,1,4,9
82188203000000,82188671000000,468.0,4096,68,68,1145232,1145299,9162398043,9162934044,250,68884,3,1,4,9
82188703000000,82189218000000,515.0,4096,69,68,1145300,1145367,9162942043,9163478044,166,68953,3,1,4,9
82189234000000,82189750000000,516.0,4096,68,67,1145368,1145434,9163486043,9164014044,319,69021,3,1,4,9
82189796000000,82190296000000,500.0,4096,68,67,1145435,1145501,9164022046,9164550043,229,69089,3,1,4,9
82190328000000,82190828000000,500.0,4096,68,68,1145502,1145569,9164558045,9165094043,377,69157,3,1,4,9
82190890000000,82191375000000,485.0,4096,69,68,1145570,1145637,9165102047,9165638046,255,69226,3,1,4,9
82191406000000,82191906000000,500.0,4096,68,67,1145638,1145704,9165646043,9166174043,226,69294,3,1,4,9
82191937000000,82192453000000,516.0,4096,69,68,1145705,1145772,9166182043,9166718043,266,69363,3,1,4,9
82192484000000,82192984000000,500.0,4096,68,67,1145773,1145839,9166726045,9167254043,241,69431,3,1,4,9
82193031000000,82193531000000,500.0,4096,68,67,1145840,1145906,9167262047,9167790043,275,69499,3,1,4,9
82193562000000,82194078000000,516.0,4096,68,68,1145907,1145974,9167798046,9168334047,263,69567,3,1,4,9
82194109000000,82194609000000,500.0,4096,68,67,1145975,1146041,9168342043,9168870043,309,69635,3,1,4,9
82194656000000,82195156000000,500.0,4096,68,68,1146042,1146109,9168878047,9169414044,251,69703,3,1,4,9
82195171000000,82195687000000,516.0,4096,69,68,1146110,1146177,9169422043,9169958044,268,69772,3,1,4,9
82195734000000,82196234000000,500.0,4096,68,67,1146178,1146244,9169966043,9170494044,348,69840,3,1,4,9
82196281000000,82196765000000,484.0,4096,67,67,1146245,1146311,9170502043,9171030043,245,69907,3,1,4,9
82196812000000,82197312000000,500.0,4096,70,68,1146312,1146379,9171038047,9171574043,335,69977,3,1,4,9
82197343000000,82197843000000,500.0,4096,67,66,1146380,1146445,9171582046,9172102047,249,70044,3,1,4,9
82197875000000,82198390000000,515.0,4096,68,68,1146446,1146513,9172110043,9172646044,194,70112,3,1,4,9
82198406000000,82198921000000,515.0,4096,69,68,1146514,1146581,9172654043,9173190045,299,70181,3,1,4,9
82198968000000,82199453000000,485.0,4096,67,66,1146582,1146647,9173198044,9173718046,250,70248,3,1,4,9
82199484000000,82200000000000,516.0,4096,69,69,1146648,1146716,9173726043,9174270043,390,70317,3,1,4,9
82200062000000,82200546000000,484.0,4096,68,67,1146717,1146783,9174278044,9174806045,461,70385,3,1,4,9
82200609000000,82201093000000,484.0,4096,68,68,1146784,1146851,9174814044,9175350043,449,70453,3,1,4,9
82201140000000,82201625000000,485.0,4096,68,67,1146852,1146918,9175358043,9175886046,200,70521,3,1,4,9
82201656000000,82202156000000,500.0,4096,69,67,1146919,1146985,9175894045,9176422046,243,70590,3,1,4,9
82202187000000,82202703000000,516.0,4096,68,68,1146986,1147053,9176430045,9176966045,279,70658,3,1,4,9
82202734000000,82203234000000,500.0,4096,68,67,1147054,1147120,9176974043,9177502044,187,70726,3,1,4,9
82203265000000,82203781000000,516.0,4096,69,68,1147121,1147188,9177510043,9178046043,237,70795,3,1,4,9
82203812000000,82204328000000,516.0,4096,68,68,1147189,1147256,9178054043,9178590043,258,70863,3,1,4,9
82204359000000,82204859000000,500.0,4096,67,66,1147257,1147322,9178598043,9179118043,246,70930,3,1,4,9
82204890000000,82205390000000,500.0,4096,68,67,1147323,1147389,9179126043,9179654043,2270,70998,3,1,4,9
82205687000000,82205937000000,250.0,4096,67,67,1147390,1147456,9179662047,9180190043,303,71065,3,1,4,9
82205968000000,82206453000000,485.0,4096,67,66,1147457,1147522,9180198045,9180718043,198,71132,3,1,4,9
82206484000000,82206984000000,500.0,4096,68,66,1147523,1147588,9180726043,9181246044,327,71200,3,1,4,9
82207031000000,82207515000000,484.0,4096,67,67,1147589,1147655,9181254043,9181782043,309,71267,3,1,4,9
82207562000000,82208046000000,484.0,4096,68,66,1147656,1147721,9181790043,9182310043,158,71335,3,1,4,9
82208062000000,82208578000000,516.0,4096,67,66,1147722,1147787,9182318043,9182838045,367,71402,3,1,4,9
82208625000000,82209125000000,500.0,4096,69,69,1147788,1147856,9182846043,9183390043,378,71471,3,1,4,9
82209187000000,82209671000000,484.0,4096,69,68,1147857,1147924,9183398043,9183934043,223,71540,3,1,4,9
82209703000000,82210218000000,515.0,4096,68,68,1147925,1147992,9183942046,9184478043,317,71608,3,1,4,9
82210265000000,82210765000000,500.0,4096,69,68,1147993,1148060,9184486045,9185022046,309,71677,3,1,4,9
82210796000000,82211312000000,516.0,4096,69,68,1148061,1148128,9185030043,9185566043,283,71746,3,1,4,9
82211343000000,82211843000000,500.0,4096,68,68,1148129,1148196,9185574043,9186110043,394,71814,3,1,4,9
82211890000000,82212390000000,500.0,4096,70,68,1148197,1148264,9186118043,9186654045,308,71884,3,1,4,9
82212437000000,82212921000000,484.0,4096,68,67,1148265,1148331,9186662044,9187190046,174,71952,3,1,4,9
82212953000000,82213484000000,531.0,4096,69,69,1148332,1148400,9187198043,9187742043,275,72021,3,1,4,9
82213515000000,82214015000000,500.0,4096,68,67,1148401,1148467,9187750043,9188278045,319,72089,3,1,4,9
82214062000000,82214546000000,484.0,4096,68,67,1148468,1148534,9188286043,9188814046,235,72157,3,1,4,9
82214578000000,82215093000000,515.0,4096,67,67,1148535,1148601,9188822043,9189350047,369,72224,3,1,4,9
82215140000000,82215625000000,485.0,4096,67,66,1148602,1148667,9189358046,9189878044,340,72291,3,1,4,9
82215656000000,82216156000000,500.0,4096,67,67,1148668,1148734,9189886043,9190414044,345,72358,3,1,4,9
82216187000000,82216671000000,484.0,4096,67,66,1148735,1148800,9190422043,9190942043,495,72425,3,1,4,9
82216750000000,82217203000000,453.0,4096,67,65,1148801,1148865,9190950043,9191462046,265,72492,3,1,4,9
82217234000000,82217734000000,500.0,4096,67,67,1148866,1148932,9191470047,9191998046,259,72559,3,1,4,9
82217781000000,82218265000000,484.0,4096,67,66,1148933,1148998,9192006043,9192526047,507,72626,3,1,4,9
82218328000000,82218796000000,468.0,4096,67,66,1148999,1149064,9192534045,9193054043,292,72693,3,1,4,9
82218828000000,82219328000000,500.0,4096,67,67,1149065,1149131,9193062046,9193590044,310,72760,3,1,4,9
82219359000000,82219859000000,500.0,4096,67,66,1149132,1149197,9193598044,9194118044,220,72827,3,1,4,9
82219890000000,82220390000000,500.0,4096,68,67,1149198,1149264,9194126043,9194654043,312,72895,3,1,4,9
82220437000000,82220921000000,484.0,4096,68,67,1149265,1149331,9194662045,9195190044,339,72963,3,1,4,9
82220968000000,82221468000000,500.0,4096,68,68,1149332,1149399,9195198043,9195734043,162,73031,3,1,4,9
82221500000000,82222000000000,500.0,4096,69,67,1149400,1149466,9195742043,9196270044,229,73100,3,1,4,9
82222031000000,82222546000000,515.0,4096,68,67,1149467,1149533,9196278043,9196806043,256,73168,3,1,4,9
82222578000000,82223093000000,515.0,4096,68,68,1149534,1149601,9196814045,9197350043,349,73236,3,1,4,9
82223140000000,82223640000000,500.0,4096,68,67,1149602,1149668,9197358043,9197886046,443,73304,3,1,4,9
82223687000000,82224156000000,469.0,4096,68,67,1149669,1149735,9197894043,9198422045,292,73372,3,1,4,9
82224203000000,82224703000000,500.0,4096,68,68,1149736,1149803,9198430043,9198966043,266,73440,3,1,4,9
82224734000000,82225250000000,516.0,4096,69,68,1149804,1149871,9198974047,9199510043,258,73509,3,1,4,9
82225281000000,82225781000000,500.0,4096,68,67,1149872,1149938,9199518043,9200046045,2531,73577,3,1,4,9
82226125000000,82226328000000,203.0,4096,68,68,1149939,1150006,9200054045,9200590043,197,73645,3,1,4,9
82226359000000,82226859000000,500.0,4096,68,67,1150007,1150073,9200598043,9201126046,250,73713,3,1,4,9
82226906000000,82227390000000,484.0,4096,69,67,1150074,1150140,9201134046,9201662043,161,73782,3,1,4,9
82227421000000,82227937000000,516.0,4096,68,67,1150141,1150207,9201670046,9202198043,263,73850,3,1,4,9
82227968000000,82228468000000,500.0,4096,68,67,1150208,1150274,9202206043,9202734045,247,73918,3,1,4,9
82228515000000,82229015000000,500.0,4096,68,68,1150275,1150342,9202742044,9203278043,208,73986,3,1,4,9
82229046000000,82229546000000,500.0,4096,69,68,1150343,1150410,9203286043,9203822043,336,74055,3,1,4,9
82229593000000,82230093000000,500.0,4096,68,67,1150411,1150477,9203830046,9204358043,269,74123,3,1,4,9
82230125000000,82230640000000,515.0,4096,67,67,1150478,1150544,9204366045,9204894043,354,74190,3,1,4,9
82230687000000,82231171000000,484.0,4096,69,68,1150545,1150612,9204902045,9205438044,244,74259,3,1,4,9
82231203000000,82231703000000,500.0,4096,68,67,1150613,1150679,9205446047,9205974044,360,74327,3,1,4,9
82231750000000,82232250000000,500.0,4096,68,67,1150680,1150746,9205982047,9206510043,289,74395,3,1,4,9
82232281000000,82232781000000,500.0,4096,68,67,1150747,1150813,9206518047,9207046044,325,74463,3,1,4,9
82232828000000,82233328000000,500.0,4096,68,67,1150814,1150880,9207054044,9207582044,237,74531,3,1,4,9
82233359000000,82233859000000,500.0,4096,68,68,1150881,1150948,9207590043,9208126043,164,74599,3,1,4,9
82233890000000,82234406000000,516.0,4096,68,67,1150949,1151015,9208134046,9208662043,253,74667,3,1,4,9
82234437000000,82234937000000,500.0,4096,68,68,1151016,1151083,9208670043,9209206045,348,74735,3,1,4,9
82234984000000,82235484000000,500.0,4096,68,67,1151084,1151150,9209214043,9209742043,199,74803,3,1,4,9
82235515000000,82236015000000,500.0,4096,68,67,1151151,1151217,9209750047,9210278045,281,74871,3,1,4,9
82236062000000,82236562000000,500.0,4096,68,68,1151218,1151285,9210286043,9210822046,395,74939,3,1,4,9
82236609000000,82237093000000,484.0,4096,69,67,1151286,1151352,9210830044,9211358044,185,75008,3,1,4,9
82237125000000,82237625000000,500.0,4096,68,67,1151353,1151419,9211366047,9211894043,398,75076,3,1,4,9
82237687000000,82238171000000,484.0,4096,68,68,1151420,1151487,9211902043,9212438046,431,75144,3,1,4,9
82238234000000,82238718000000,484.0,4096,68,67,1151488,1151554,9212446043,9212974044,356,75212,3,1,4,9
82238765000000,82239250000000,485.0,4096,68,68,1151555,1151622,9212982043,9213518043,350,75280,3,1,4,9
82239296000000,82239796000000,500.0,4096,69,68,1151623,1151690,9213526043,9214062044,394,75349,3,1,4,9
82239843000000,82240328000000,485.0,4096,68,67,1151691,1151757,9214070046,9214598043,233,75417,3,1,4,9
82240359000000,82240875000000,516.0,4096,67,67,1151758,1151824,9214606043,9215134043,246,75484,3,1,4,9
82240906000000,82241421000000,515.0,4096,69,68,1151825,1151892,9215142043,9215678045,365,75553,3,1,4,9
82241468000000,82241953000000,485.0,4096,68,67,1151893,1151959,9215686046,9216214043,211,75621,3,1,4,9
82241984000000,82242500000000,516.0,4096,69,68,1151960,1152027,9216222044,9216758043,271,75690,3,1,4,9
82242531000000,82243031000000,500.0,4096,68,67,1152028,1152094,9216766043,9217294043,244,75758,3,1,4,9
82243062000000,82243578000000,516.0,4096,68,68,1152095,1152162,9217302046,9217838045,228,75826,3,1,4,9
82243609000000,82244109000000,500.0,4096,68,67,1152163,1152229,9217846043,9218374045,399,75894,3,1,4,9
82244171000000,82244656000000,485.0,4096,68,67,1152230,1152296,9218382043,9218910043,466,75962,3,1,4,9
82244718000000,82245203000000,485.0,4096,68,68,1152297,1152364,9218918045,9219454045,185,76030,3,1,4,9
82245218000000,82245734000000,516.0,4096,68,67,1152365,1152431,9219462043,9219990046,2149,76098,3,1,4,9
82246000000000,82246250000000,250.0,4096,67,66,1152432,1152497,9219998045,9220518043,350,76165,3,1,4,9
82246296000000,82246796000000,500.0,4096,67,67,1152498,1152564,9220526045,9221054044,157,76232,3,1,4,9
82246812000000,82247312000000,500.0,4096,68,66,1152565,1152630,9221062046,9221582044,247,76300,3,1,4,9
82247359000000,82247843000000,484.0,4096,67,65,1152631,1152695,9221590044,9222102045,187,76367,3,1,4,9
82247875000000,82248375000000,500.0,4096,68,68,1152696,1152763,9222110047,9222646046,278,76435,3,1,4,9
82248421000000,82248921000000,500.0,4096,67,66,1152764,1152829,9222654043,9223174047,226,76502,3,1,4,9
82248937000000,82249437000000,500.0,4096,67,66,1152830,1152895,9223182047,9223702044,185,76569,3,1,4,9
82249468000000,82249984000000,516.0,4096,68,68,1152896,1152963,9223710047,9224246044,332,76637,3,1,4,9
82250031000000,82250515000000,484.0,4096,68,67,1152964,1153030,9224254043,9224782045,251,76705,3,1,4,9
82250562000000,82251062000000,500.0,4096,68,68,1153031,1153098,9224790045,9225326045,233,76773,3,1,4,9
82251093000000,82251609000000,516.0,4096,69,68,1153099,1153166,9225334046,9225870044,250,76842,3,1,4,9
82251640000000,82252140000000,500.0,4096,69,67,1153167,1153233,9225878043,9226406043,384,76911,3,1,4,9
82252187000000,82252687000000,500.0,4096,67,67,1153234,1153300,9226414045,9226942043,224,76978,3,1,4,9
82252718000000,82253218000000,500.0,4096,69,68,1153301,1153368,9226950045,9227486043,276,77047,3,1,4,9
82253265000000,82253765000000,500.0,4096,68,67,1153369,1153435,9227494043,9228022043,255,77115,3,1,4,9
82253796000000,82254312000000,516.0,4096,68,68,1153436,1153503,9228030046,9228566043,179,77183,3,1,4,9
82254328000000,82254828000000,500.0,4096,67,66,1153504,1153569,9228574043,9229094043,376,77250,3,1,4,9
82254890000000,82255375000000,485.0,4096,67,67,1153570,1153636,9229102043,9229630043,175,77317,3,1,4,9
82255390000000,82255890000000,500.0,4096,67,66,1153637,1153702,9229638043,9230158043,253,77384,3,1,4,9
82255937000000,82256421000000,484.0,4096,67,66,1153703,1153768,9230166046,9230686043,308,77451,3,1,4,9
82256468000000,82256953000000,485.0,4096,67,67,1153769,1153835,9230694043,9231222045,218,77518,3,1,4,9
82256984000000,82257484000000,500.0,4096,68,66,1153836,1153901,9231230043,9231750043,270,77586,3,1,4,9
82257515000000,82258015000000,500.0,4096,67,66,1153902,1153967,9231758047,9232278043,182,77653,3,1,4,9
82258031000000,82258546000000,515.0,4096,67,67,1153968,1154034,9232286043,9232814043,269,77720,3,1,4,9
82258593000000,82259078000000,485.0,4096,67,66,1154035,1154100,9232822045,9233342044,308,77787,3,1,4,9
82259125000000,82259625000000,500.0,4096,68,68,1154101,1154168,9233350045,9233886043,273,77855,3,1,4,9
82259656000000,82260156000000,500.0,4096,68,67,1154169,1154235,9233894047,9234422047,367,77923,3,1,4,9
82260218000000,82260703000000,485.0,4096,69,68,1154236,1154303,9234430043,9234966043,263,77992,3,1,4,9
82260734000000,82261250000000,516.0,4096,67,67,1154304,1154370,9234974048,9235502044,187,78059,3,1,4,9
82261265000000,82261781000000,516.0,4096,69,68,1154371,1154438,9235510043,9236046045,245,78128,3,1,4,9
82261812000000,82262312000000,500.0,4096,69,67,1154439,1154505,9236054045,9236582043,261,78197,3,1,4,9
82262359000000,82262859000000,500.0,4096,67,67,1154506,1154572,9236590043,9237118043,188,78264,3,1,4,9
82262890000000,82263406000000,516.0,4096,69,68,1154573,1154640,9237126046,9237662043,251,78333,3,1,4,9
82263437000000,82263937000000,500.0,4096,68,67,1154641,1154707,9237670043,9238198047,333,78401,3,1,4,9
