seq,t_us,rr_ms,hr_bpm,score,flags
1077277,8618758043,839.0,0.0,0.617,169
1077379,8619574043,816.0,0.0,0.576,169
1077472,8620318043,744.0,0.0,0.564,169
1077563,8621046043,728.0,0.0,0.626,169
1077657,8621798043,752.0,0.0,0.641,169
1077753,8622566047,768.0,0.0,0.597,169
1077851,8623350043,783.0,0.0,0.639,169
1077863,8623446045,96.0,0.0,0.444,189
1077968,8624286043,839.0,0.0,0.657,169
1078077,8625158045,872.0,0.0,0.671,169
1078183,8626006043,847.0,0.0,0.623,169
1078283,8626806046,800.0,0.0,0.632,169
1078387,8627638043,831.0,0.0,0.608,169
1078486,8628430043,792.0,0.0,0.584,169
1078585,8629222043,792.0,0.0,0.55,185
1078669,8629894043,672.0,0.0,0.566,169
1078752,8630558045,664.0,0.0,0.616,169
1078834,8631214043,655.0,0.0,0.646,169
1078920,8631902045,688.0,0.0,0.672,169
1079012,8632638045,736.0,0.0,0.607,169
1079101,8633350043,711.0,0.0,0.616,169
1079197,8634118047,768.0,0.0,0.614,169
1079299,8634934046,815.0,0.0,0.613,169
1079408,8635806043,871.0,0.0,0.226,185
1079521,8636710046,904.0,0.0,0.622,169
1079620,8637502045,791.0,0.0,0.675,169
1079726,8638350046,848.0,0.0,0.656,169
1079836,8639230044,879.0,0.0,0.576,169
1079939,8640054043,823.0,0.0,0.584,169
1080044,8640894046,840.0,0.0,0.573,185
1080050,8640942045,47.0,0.0,0.484,189
1080161,8641830046,888.0,0.0,0.669,169
1080282,8642798044,967.0,0.0,0.611,169
1080394,8643694043,895.0,0.0,0.563,169
1080500,8644542043,848.0,0.0,0.222,185
1080616,8645470046,928.0,0.0,0.666,169
1080721,8646310044,839.0,0.0,0.686,169
1080828,8647166043,855.0,0.0,0.617,169
1080939,8648054047,888.0,0.0,0.608,169
1081046,8648910043,855.0,0.0,0.227,185
1081158,8649806043,896.0,0.0,0.626,169
1081258,8650606043,800.0,0.0,0.653,169
1081360,8651422046,816.0,0.0,0.677,169
1081464,8652254047,832.0,0.0,0.637,169
1081579,8653174047,920.0,0.0,0.573,169
1081594,8653294044,119.0,0.0,0.435,189
1081689,8654054043,759.0,0.0,0.623,169
1081799,8654934043,880.0,0.0,0.609,169
1081894,8655694047,760.0,0.0,0.654,169
1081988,8656446043,751.0,0.0,0.705,169
1082085,8657222043,776.0,0.0,0.67,169
1082175,8657942044,720.0,0.0,0.676,169
1082271,8658710045,768.0,0.0,0.664,169
1082373,8659526045,816.0,0.0,0.677,169
1082486,8660430044,903.0,0.0,0.626,169
1082504,8660574046,144.0,0.0,0.432,189
1082624,8661534047,960.0,0.0,0.688,169
1082750,8662542044,1007.0,0.0,0.559,169
1082866,8663470043,927.0,0.0,0.216,185
1083000,8664542043,1072.0,0.0,0.626,169
1083114,8665454043,912.0,0.0,0.57,169
1083223,8666326043,872.0,0.0,0.58,185
1083232,8666398049,72.0,0.0,0.438,189
1083332,8667198043,799.0,0.0,0.625,169
1083441,8668070043,872.0,0.0,0.679,169
1083547,8668918043,848.0,0.0,0.618,169
1083643,8669686046,768.0,0.0,0.65,169
1083743,8670486043,799.0,0.0,0.633,169
1083842,8671278043,792.0,0.0,0.592,169
1083940,8672062043,784.0,0.0,0.612,169
1084043,8672886043,824.0,0.0,0.618,185
1084051,8672950047,64.0,0.0,0.446,189
1084156,8673790043,839.0,0.0,0.589,169
1084258,8674606043,816.0,0.0,0.685,169
1084366,8675470043,864.0,0.0,0.629,169
1084466,8676270043,800.0,0.0,0.604,169
1084556,8676990043,720.0,0.0,0.637,169
1084649,8677734045,744.0,0.0,0.634,169
1084751,8678550046,816.0,0.0,0.594,169
1084847,8679318044,767.0,0.0,0.612,169
1084949,8680134043,815.0,0.0,0.555,169
1085042,8680878045,744.0,0.0,0.561,185
1085132,8681598044,719.0,0.0,0.581,185
1085228,8682366043,767.0,0.0,0.593,185
1085235,8682422047,56.0,0.0,0.46,189
1085330,8683182043,759.0,0.0,0.606,169
1085438,8684046047,864.0,0.0,0.668,169
1085555,8684982043,935.0,0.0,0.651,169
1085676,8685950043,968.0,0.0,0.567,169
1085689,8686054045,104.0,0.0,0.445,189
1085787,8686838045,784.0,0.0,0.57,169
1085895,8687702043,863.0,0.0,0.671,169
1086006,8688590047,888.0,0.0,0.599,169
1086111,8689430043,839.0,0.0,0.578,169
1086216,8690270043,840.0,0.0,0.577,169
1086324,8691134045,864.0,0.0,0.236,185
1086439,8692054047,920.0,0.0,0.699,169
1086550,8692942046,887.0,0.0,0.648,169
1086659,8693814043,871.0,0.0,0.586,169
1086761,8694630046,816.0,0.0,0.558,169
1086864,8695454046,824.0,0.0,0.583,185
1086872,8695518045,63.0,0.0,0.441,189
1086970,8696302046,784.0,0.0,0.605,169
1087076,8697150043,847.0,0.0,0.653,169
1087180,8697982043,832.0,0.0,0.641,169
1087283,8698806043,824.0,0.0,0.649,169
1087390,8699662043,856.0,0.0,0.616,169
1087503,8700566044,904.0,0.0,0.583,185
1087510,8700622043,55.0,0.0,0.46,189
1087618,8701486043,864.0,0.0,0.609,169
1087715,8702262043,776.0,0.0,0.656,169
1087817,8703078045,816.0,0.0,0.661,169
1087918,8703886043,807.0,0.0,0.612,169
1088016,8704670043,784.0,0.0,0.589,169
1088115,8705462045,792.0,0.0,0.619,169
1088210,8706222043,759.0,0.0,0.601,169
1088308,8707006043,784.0,0.0,0.603,169
1088413,8707846043,840.0,0.0,0.584,185
1088419,8707894046,48.0,0.0,0.443,189
1088521,8708710046,816.0,0.0,0.614,169
1088631,8709590046,880.0,0.0,0.606,169
1088736,8710430044,839.0,0.0,0.594,169
1088842,8711278043,847.0,0.0,0.593,169
1088954,8712174043,896.0,0.0,0.549,185
1088965,8712262045,88.0,0.0,0.439,189
1089062,8713038043,775.0,0.0,0.572,169
1089166,8713870043,832.0,0.0,0.628,169
1089275,8714742043,872.0,0.0,0.648,169
1089383,8715606043,864.0,0.0,0.602,169
1089488,8716446045,840.0,0.0,0.558,169
1089593,8717286043,839.0,0.0,0.553,185
1089691,8718070045,784.0,0.0,0.225,185
1089795,8718902043,831.0,0.0,0.606,169
1089893,8719686043,784.0,0.0,0.662,169
1089990,8720462043,776.0,0.0,0.677,169
1090092,8721278043,816.0,0.0,0.671,169
1090191,8722070045,792.0,0.0,0.671,169
1090302,8722958046,888.0,0.0,0.589,169
1090407,8723798047,840.0,0.0,0.576,169
1090510,8724622046,823.0,0.0,0.223,185
1090617,8725478044,855.0,0.0,0.619,169
1090715,8726262044,784.0,0.0,0.629,169
1090819,8727094043,831.0,0.0,0.675,169
1090935,8728022043,928.0,0.0,0.58,169
1091056,8728990043,968.0,0.0,0.231,185
1091176,8729950045,960.0,0.0,0.62,169
1091289,8730854043,903.0,0.0,0.591,169
1091398,8731726043,872.0,0.0,0.59,169
1091505,8732582043,856.0,0.0,0.536,185
1091602,8733358043,776.0,0.0,0.22,185
1091704,8734174043,816.0,0.0,0.622,169
1091808,8735006043,832.0,0.0,0.661,169
1091913,8735846043,840.0,0.0,0.66,169
1092015,8736662045,816.0,0.0,0.625,169
1092121,8737510046,848.0,0.0,0.63,169
1092232,8738398043,887.0,0.0,0.601,185
1092241,8738470043,72.0,0.0,0.443,189
1092341,8739270043,800.0,0.0,0.647,169
1092451,8740150043,880.0,0.0,0.695,169
1092564,8741054043,904.0,0.0,0.646,169
1092670,8741902043,848.0,0.0,0.594,169
1092774,8742734047,832.0,0.0,0.585,169
1092876,8743550043,815.0,0.0,0.224,185
1092995,8744502045,952.0,0.0,0.651,169
1093103,8745366045,864.0,0.0,0.595,169
1093209,8746214043,847.0,0.0,0.601,169
1093311,8747030043,816.0,0.0,0.584,169
1093415,8747862044,832.0,0.0,0.538,185
1093512,8748638043,775.0,0.0,0.538,185
1093604,8749374043,736.0,0.0,0.229,185
1093711,8750230043,856.0,0.0,0.606,169
1093809,8751014043,784.0,0.0,0.628,169
1093909,8751814043,800.0,0.0,0.646,169
1094014,8752654043,840.0,0.0,0.637,169
1094121,8753510043,856.0,0.0,0.576,169
1094224,8754334043,824.0,0.0,0.556,169
1094326,8755150043,816.0,0.0,0.569,185
1094334,8755214043,64.0,0.0,0.44,189
1094428,8755966043,752.0,0.0,0.477,185
1094523,8756726043,760.0,0.0,0.605,169
1094621,8757510043,784.0,0.0,0.67,169
1094724,8758334043,824.0,0.0,0.65,169
1094819,8759094045,760.0,0.0,0.663,169
1094925,8759942043,847.0,0.0,0.678,169
1095032,8760798045,856.0,0.0,0.607,169
1095130,8761582043,783.0,0.0,0.569,169
1095232,8762398043,816.0,0.0,0.611,169
1095333,8763206043,808.0,0.0,0.229,185
1095450,8764142043,936.0,0.0,0.65,169
1095553,8764966043,824.0,0.0,0.65,169
1095656,8765790043,824.0,0.0,0.652,169
1095755,8766582046,792.0,0.0,0.677,169
1095858,8767406046,824.0,0.0,0.527,169
1095943,8768086045,679.0,0.0,0.603,169
1096032,8768798043,711.0,0.0,0.6,169
1096114,8769454043,656.0,0.0,0.663,169
1096199,8770134043,680.0,0.0,0.651,169
1096288,8770846043,712.0,0.0,0.644,169
1096375,8771542046,696.0,0.0,0.66,169
1096465,8772262043,719.0,0.0,0.691,169
1096563,8773046043,784.0,0.0,0.662,169
1096668,8773886046,840.0,0.0,0.577,169
1096767,8774678043,791.0,0.0,0.574,169
1096876,8775550043,872.0,0.0,0.589,185
1096882,8775598045,48.0,0.0,0.447,189
1096996,8776510043,911.0,0.0,0.635,169
1097107,8777398043,888.0,0.0,0.629,169
1097220,8778302043,904.0,0.0,0.611,169
1097332,8779198043,896.0,0.0,0.573,185
1097338,8779246044,48.0,0.0,0.452,189
1097445,8780102046,856.0,0.0,0.614,169
1097549,8780934043,831.0,0.0,0.631,169
1097661,8781830043,896.0,0.0,0.588,169
1097769,8782694047,864.0,0.0,0.595,169
1097880,8783582043,887.0,0.0,0.592,185
1097887,8783638043,56.0,0.0,0.497,189
1097992,8784478043,840.0,0.0,0.645,169
1098107,8785398043,920.0,0.0,0.623,169
1098213,8786246043,848.0,0.0,0.607,169
1098314,8787054043,808.0,0.0,0.582,169
1098416,8787870043,816.0,0.0,0.585,169
1098510,8788622046,752.0,0.0,0.558,185
1098599,8789334043,711.0,0.0,0.576,169
1098686,8790030043,696.0,0.0,0.591,169
1098774,8790734043,704.0,0.0,0.645,169
1098872,8791518043,784.0,0.0,0.643,169
1098884,8791614043,96.0,0.0,0.444,189
1098988,8792446043,832.0,0.0,0.671,169
1099113,8793446043,1000.0,0.0,0.66,169
1099224,8794334043,888.0,0.0,0.617,169
1099337,8795238043,904.0,0.0,0.221,185
1099470,8796302043,1064.0,0.0,0.652,169
1099588,8797246043,944.0,0.0,0.535,169
1099690,8798062043,816.0,0.0,0.55,169
1099791,8798870043,808.0,0.0,0.597,185
1099794,8798894046,24.0,0.0,0.447,189
1099899,8799734045,839.0,0.0,0.59,169
1099992,8800478044,743.0,0.0,0.646,169
1100095,8801302043,823.0,0.0,0.613,169
1100197,8802118043,816.0,0.0,0.614,169
1100304,8802974043,856.0,0.0,0.541,169
1100410,8803822046,848.0,0.0,0.57,169
1100520,8804702043,879.0,0.0,0.225,185
1100638,8805646043,944.0,0.0,0.592,169
1100751,8806550044,904.0,0.0,0.572,169
1100857,8807398043,847.0,0.0,0.567,169
1100962,8808238043,840.0,0.0,0.543,169
1101066,8809070043,832.0,0.0,0.225,185
1101172,8809918043,848.0,0.0,0.616,169
1101273,8810726043,808.0,0.0,0.6,169
1101369,8811494043,768.0,0.0,0.63,169
1101465,8812262043,768.0,0.0,0.673,169
1101569,8813094043,832.0,0.0,0.66,169
1101683,8814006043,912.0,0.0,0.595,169
1101794,8814894050,888.0,0.0,0.211,185
1101920,8815902043,1007.0,0.0,0.608,169
1102037,8816838043,936.0,0.0,0.548,169
1102150,8817742043,904.0,0.0,0.562,185
1102160,8817822043,80.0,0.0,0.443,189
1102262,8818638045,816.0,0.0,0.586,169
1102372,8819518048,880.0,0.0,0.653,169
1102480,8820382043,863.0,0.0,0.618,169
1102584,8821214046,832.0,0.0,0.55,169
1102681,8821990045,775.0,0.0,0.574,169
1102780,8822782043,791.0,0.0,0.587,169
1102885,8823622043,840.0,0.0,0.573,185
1102889,8823654043,32.0,0.0,0.458,189
1102991,8824470043,816.0,0.0,0.636,169
1103096,8825310045,840.0,0.0,0.612,169
1103198,8826126046,816.0,0.0,0.631,169
1103306,8826990043,863.0,0.0,0.596,169
1103412,8827838043,848.0,0.0,0.581,169
1103517,8828678043,840.0,0.0,0.555,185
1103525,8828742043,64.0,0.0,0.436,189
1103625,8829542043,800.0,0.0,0.617,169
1103730,8830382043,840.0,0.0,0.66,169
1103833,8831206044,824.0,0.0,0.634,169
1103937,8832038043,831.0,0.0,0.628,169
1104041,8832870043,832.0,0.0,0.598,169
1104147,8833718043,848.0,0.0,0.562,169
1104250,8834542043,824.0,0.0,0.546,185
1104342,8835278043,736.0,0.0,0.221,185
1104449,8836134043,856.0,0.0,0.644,169
1104543,8836886046,752.0,0.0,0.651,169
1104642,8837678043,791.0,0.0,0.669,169
1104742,8838478043,800.0,0.0,0.636,169
1104843,8839286043,808.0,0.0,0.554,169
1104931,8839990043,704.0,0.0,0.585,169
1105019,8840694045,704.0,0.0,0.617,169
1105093,8841286047,592.0,0.0,0.644,169
1105238,8842446043,1159.0,0.0,0.727,169
1105322,8843118047,672.0,0.0,0.738,169
1105420,8843902043,783.0,0.0,0.688,169
1105617,8845478043,0.0,0.0,0.794,75
1105768,8846686046,1208.0,0.0,0.417,185
1105835,8847222043,535.0,0.0,0.843,169
1105942,8848078047,856.0,0.0,0.867,169
1106043,8848886044,807.0,0.0,0.844,169
1106149,8849734043,847.0,0.0,0.844,169
1106257,8850598047,864.0,0.0,0.819,169
1106363,8851446043,847.0,70.3,0.841,73
1106474,8852334043,888.0,68.9,0.882,73
1106585,8853222043,888.0,67.6,0.858,73
1106697,8854118043,896.0,67.6,0.855,73
1106803,8854966047,848.0,67.6,0.851,73
1106908,8855806043,839.0,68.9,0.863,73
1107017,8856678043,872.0,68.8,0.853,73
1107126,8857550045,872.0,68.8,0.869,73
1107238,8858446044,895.0,68.8,0.883,73
1107350,8859342044,896.0,67.6,0.877,73
1107460,8860222045,880.0,68.2,0.875,73
1107565,8861062043,839.0,68.8,0.871,73
1107670,8861902043,840.0,68.8,0.878,73
1107779,8862774047,872.0,68.8,0.869,73
1107887,8863638043,863.0,68.8,0.861,73
1107991,8864470043,832.0,68.8,0.857,73
1108094,8865294043,824.0,69.4,0.86,73
1108195,8866102043,808.0,71.4,0.851,73
1108298,8866926043,824.0,71.4,0.837,73
1108398,8867726043,800.0,72.1,0.818,73
1108496,8868510043,784.0,72.8,0.826,73
1108643,8869686043,1176.0,72.8,0.466,185
1108693,8870086045,400.0,72.8,0.532,185
1108887,8871638043,1551.0,72.8,0.78,185
1108991,8872470043,832.0,72.8,0.793,185
1109039,8872854043,384.0,72.8,0.516,169
1109104,8873374047,520.0,72.8,0.827,169
1109224,8874334043,959.0,72.8,0.87,73
1109348,8875326043,992.0,72.8,0.846,73
1109468,8876286043,960.0,72.8,0.818,73
1109588,8877246045,960.0,72.8,0.808,73
1109699,8878134043,887.0,72.8,0.785,169
1109804,8878974046,840.0,72.8,0.8,169
1109906,8879790047,816.0,72.8,0.806,169
1110009,8880614045,823.0,72.8,0.804,169
1110110,8881422047,808.0,72.8,0.802,169
1110214,8882254044,831.0,72.1,0.822,73
1110326,8883150043,895.0,71.9,0.879,73
1110442,8884078044,928.0,67.0,0.858,73
1110553,8884966045,888.0,67.0,0.852,73
1110665,8885862046,896.0,67.0,0.874,73
1110778,8886766044,903.0,66.4,0.85,73
1110875,8887542043,775.0,67.0,0.849,73
1110972,8888318043,776.0,67.0,0.83,73
1111070,8889102044,784.0,67.6,0.84,73
1111264,8890654046,1552.0,67.6,0.755,185
1111361,8891430043,775.0,67.6,0.782,169
1111459,8892214043,784.0,67.6,0.797,169
1111559,8893014043,800.0,67.6,0.813,169
1111662,8893838043,824.0,67.6,0.819,169
1111755,8894582047,744.0,67.6,0.811,169
1111848,8895326046,743.0,67.5,0.835,73
1111938,8896046045,719.0,67.6,0.83,73
1112107,8897398043,1351.0,76.5,0.763,73
1112188,8898046043,648.0,77.3,0.837,73
1112270,8898702043,656.0,77.3,0.858,73
1112352,8899358043,656.0,83.3,0.887,73
1112437,8900038043,680.0,88.2,0.867,73
1112519,8900694043,656.0,88.8,0.849,73
1112602,8901358044,664.0,90.4,0.866,73
1112685,8902022043,663.0,90.4,0.86,73
1112768,8902686043,664.0,90.4,0.857,73
1112850,8903342045,656.0,91.5,0.837,73
1112931,8903990043,647.0,91.5,0.814,73
1113009,8904614043,624.0,91.5,0.843,73
1113087,8905238047,624.0,91.5,0.816,73
1113162,8905838043,599.0,91.5,0.79,73
1113236,8906430043,592.0,92.6,0.754,73
1113344,8907294043,864.0,92.6,0.447,185
1113445,8908102043,808.0,92.6,0.792,169
1113517,8908678047,576.0,92.6,0.822,169
1113586,8909230043,551.0,92.6,0.821,169
1113656,8909790046,560.0,92.6,0.866,169
1113729,8910374047,584.0,92.6,0.873,169
1113805,8910982046,607.0,92.6,0.87,169
1113882,8911598047,616.0,92.9,0.868,73
1113961,8912230043,631.0,94.9,0.878,73
1114042,8912878043,648.0,94.9,0.873,73
1114124,8913534044,656.0,94.9,0.877,73
1114208,8914206044,672.0,94.9,0.865,73
1114299,8914934047,728.0,92.9,0.855,73
1114393,8915686047,752.0,92.6,0.817,73
1114482,8916398046,711.0,92.6,0.795,169
1114578,8917166043,767.0,92.6,0.778,185
1114669,8917894047,728.0,92.6,0.316,185
1114765,8918662043,767.0,92.6,0.833,169
1114854,8919374043,712.0,92.6,0.853,169
1114951,8920150047,776.0,92.6,0.872,169
1115045,8920902045,751.0,92.0,0.839,73
1115141,8921670043,767.0,91.5,0.855,73
1115241,8922470045,800.0,89.3,0.816,73
1115336,8923230043,759.0,82.4,0.793,73
1115424,8923934043,704.0,82.4,0.79,73
1115510,8924622043,688.0,82.4,0.837,73
1115597,8925318043,696.0,82.4,0.848,73
1115683,8926006043,688.0,85.2,0.856,73
1115762,8926638043,632.0,86.2,0.86,73
1115846,8927310043,672.0,86.2,0.891,73
1115934,8928014044,704.0,86.2,0.886,73
1116028,8928766043,751.0,86.2,0.877,73
1116121,8929510045,744.0,86.2,0.838,73
1116208,8930206043,695.0,86.2,0.86,73
1116298,8930926043,720.0,86.2,0.861,73
1116387,8931638047,712.0,85.2,0.859,73
1116477,8932358043,719.0,84.3,0.844,73
1116568,8933086043,728.0,83.3,0.858,73
1116666,8933870043,784.0,83.3,0.832,73
1116758,8934606043,736.0,82.4,0.826,73
1116850,8935342043,736.0,82.4,0.814,73
1116943,8936086043,744.0,82.4,0.806,73
1117034,8936814043,728.0,82.4,0.819,73
1117119,8937494045,680.0,82.4,0.831,73
1117201,8938150043,655.0,82.4,0.868,73
1117280,8938782047,632.0,82.4,0.862,169
1117361,8939430045,647.0,82.4,0.845,169
1117525,8940742043,1311.0,82.4,0.783,185
1117606,8941390043,648.0,82.4,0.804,169
1117638,8941646043,256.0,82.4,0.55,173
1117771,8942710046,1064.0,82.4,0.818,169
1117854,8943374047,664.0,81.5,0.815,73
1117944,8944094043,719.0,81.5,0.88,73
1118038,8944846043,752.0,81.5,0.88,73
1118130,8945582045,736.0,81.5,0.88,73
1118230,8946382043,799.0,81.5,0.886,73
1118330,8947182044,800.0,81.5,0.832,73
1118431,8947990047,808.0,80.4,0.803,73
1118535,8948822043,831.0,79.8,0.77,73
1118637,8949638043,816.0,75.0,0.757,73
1118732,8950398043,760.0,75.0,0.769,73
1118823,8951126047,728.0,75.0,0.844,73
1118917,8951878046,751.0,75.0,0.864,73
1119009,8952614046,736.0,75.0,0.867,73
1119103,8953366043,751.0,78.9,0.871,73
1119197,8954118047,752.0,79.8,0.869,73
1119295,8954902043,783.0,79.8,0.88,73
1119392,8955678043,776.0,79.8,0.854,73
1119489,8956454043,776.0,79.8,0.855,73
1119584,8957214043,760.0,79.8,0.85,73
1119681,8957990043,776.0,78.9,0.886,73
1119780,8958782043,792.0,77.3,0.866,73
1119879,8959574043,792.0,77.3,0.862,73
1119977,8960358047,784.0,77.3,0.842,73
1120077,8961158043,799.0,76.5,0.859,73
1120179,8961974043,816.0,76.5,0.841,73
1120276,8962750043,776.0,76.5,0.847,73
1120376,8963550043,800.0,75.8,0.871,73
1120477,8964358043,808.0,75.8,0.846,73
1120579,8965174047,816.0,75.0,0.836,73
1120680,8965982044,807.0,75.0,0.849,73
1120780,8966782044,800.0,75.0,0.848,73
1120879,8967574043,791.0,75.0,0.851,73
1120973,8968326044,752.0,75.0,0.851,73
1121073,8969126043,799.0,75.0,0.877,73
1121174,8969934043,808.0,75.0,0.863,73
1121277,8970758043,824.0,74.3,0.86,73
1121377,8971558043,800.0,75.0,0.852,73
1121481,8972390043,832.0,75.0,0.879,73
1121591,8973270043,880.0,75.0,0.861,73
1121700,8974142046,872.0,74.3,0.841,73
1121798,8974926043,783.0,74.3,0.831,73
1121895,8975702047,776.0,74.3,0.865,73
1121994,8976494043,791.0,74.3,0.86,73
1122091,8977270043,776.0,75.0,0.856,73
1122185,8978022043,752.0,75.8,0.866,73
1122288,8978846043,824.0,75.8,0.882,73
1122390,8979662043,816.0,75.8,0.868,73
1122488,8980446043,784.0,76.5,0.848,73
1122581,8981190043,744.0,76.5,0.864,73
1122680,8981982043,792.0,76.5,0.877,73
1122780,8982782043,800.0,75.8,0.867,73
1122879,8983574043,792.0,75.8,0.874,73
1122984,8984414043,840.0,75.8,0.871,73
1123093,8985286047,872.0,75.0,0.86,73
1123199,8986134045,847.0,75.0,0.831,73
1123302,8986958043,823.0,75.0,0.843,73
1123405,8987782043,824.0,72.8,0.84,73
1123508,8988606044,824.0,72.8,0.847,73
1123611,8989430043,823.0,72.8,0.831,73
1123710,8990222044,792.0,72.8,0.849,73
1123812,8991038043,815.0,72.8,0.854,73
1123910,8991822045,784.0,72.8,0.852,73
1124002,8992558045,736.0,72.8,0.853,73
1124095,8993302046,744.0,73.5,0.855,73
1124183,8994006046,704.0,75.8,0.83,73
1124351,8995350044,1343.0,75.8,0.777,169
1124433,8996006045,656.0,75.8,0.801,169
1124511,8996630043,623.0,75.8,0.854,169
1124595,8997302043,672.0,75.8,0.895,169
1124681,8997990047,688.0,75.8,0.868,169
1124768,8998686046,695.0,75.8,0.871,169
1124858,8999406047,720.0,76.5,0.849,73
1124948,9000126043,719.0,77.8,0.869,73
1125041,9000870047,744.0,80.6,0.865,73
1125136,9001630043,759.0,80.6,0.862,73
1125230,9002382043,752.0,80.6,0.841,73
1125328,9003166047,784.0,80.6,0.86,73
1125430,9003982047,816.0,79.8,0.861,73
1125538,9004846043,863.0,78.9,0.828,73
1125642,9005678043,832.0,77.8,0.795,73
1125738,9006446045,768.0,78.1,0.808,73
1125834,9007214043,767.0,78.1,0.831,73
1125930,9007982043,768.0,78.1,0.837,73
1126026,9008750047,768.0,78.1,0.831,73
1126114,9009454043,703.0,78.1,0.827,73
1126201,9010150043,696.0,78.1,0.875,73
1126290,9010862043,712.0,78.1,0.873,73
1126382,9011598043,736.0,78.1,0.887,73
1126476,9012350043,752.0,79.8,0.872,73
1126575,9013142045,792.0,79.8,0.875,73
1126684,9014014047,872.0,79.8,0.853,73
1126805,9014982043,967.0,79.8,0.805,169
1126919,9015894043,912.0,79.8,0.785,185
1126971,9016310043,416.0,79.8,0.496,185
1127034,9016814043,504.0,79.8,0.851,169
1127155,9017782047,968.0,79.8,0.889,169
1127279,9018774047,992.0,79.8,0.829,169
1127396,9019710043,935.0,79.8,0.779,73
1127507,9020598043,888.0,79.8,0.865,73
1127617,9021478044,880.0,75.8,0.839,73
1127725,9022342043,863.0,73.7,0.805,73
1127825,9023142043,800.0,73.7,0.804,73
1127924,9023934043,792.0,73.7,0.812,73
1128026,9024750044,816.0,73.5,0.824,73
1128128,9025566045,816.0,73.5,0.813,73
1128230,9026382043,815.0,73.5,0.831,73
1128332,9027198045,816.0,73.5,0.825,73
1128435,9028022046,824.0,73.5,0.823,73
1128535,9028822047,800.0,73.5,0.832,73
1128636,9029630043,807.0,73.5,0.847,73
1128738,9030446045,816.0,73.5,0.838,73
1128843,9031286043,839.0,73.5,0.839,73
1128941,9032070043,784.0,73.5,0.842,73
1129043,9032886046,816.0,73.5,0.861,73
1129144,9033694043,807.0,73.5,0.855,73
1129239,9034454045,760.0,74.3,0.851,73
1129333,9035206043,751.0,74.3,0.874,73
1129428,9035966043,760.0,74.3,0.878,73
1129527,9036758043,792.0,75.8,0.872,73
1129617,9037478043,720.0,76.5,0.835,73
1129713,9038246046,768.0,78.1,0.867,73
1129811,9039030047,784.0,78.1,0.87,73
1129911,9039830043,799.0,78.1,0.87,73
1130007,9040598043,768.0,78.1,0.859,73
1130103,9041366043,768.0,78.1,0.879,73
1130199,9042134047,768.0,78.1,0.857,73
1130288,9042846043,711.0,78.1,0.858,73
1130369,9043494043,648.0,78.1,0.805,73
1130529,9044774043,1280.0,78.1,0.82,169
1130616,9045470043,696.0,78.1,0.827,169
1130657,9045798044,328.0,78.1,0.533,169
1130747,9046518043,719.0,78.1,0.52,169
1130887,9047638047,1120.0,78.1,0.81,169
1130973,9048326043,687.0,78.1,0.825,169
1131064,9049054046,728.0,78.1,0.839,73
1131157,9049798046,744.0,78.1,0.867,73
1131248,9050526044,727.0,80.6,0.842,73
1131340,9051262044,736.0,81.5,0.842,73
1131437,9052038043,775.0,81.5,0.851,73
1131537,9052838045,800.0,81.5,0.841,73
1131637,9053638043,799.0,81.5,0.824,73
1131735,9054422043,784.0,80.6,0.816,73
1131833,9055206043,784.0,77.3,0.819,73
1131931,9055990043,784.0,76.5,0.812,73
1132027,9056758047,768.0,76.5,0.815,73
1132124,9057534044,775.0,76.5,0.828,73
1132222,9058318043,783.0,76.5,0.836,169
1132320,9059102047,784.0,76.5,0.846,169
1132417,9059878043,775.0,76.5,0.847,169
1132511,9060630043,752.0,76.5,0.852,169
1132601,9061350044,720.0,76.5,0.865,169
1132696,9062110044,760.0,76.5,0.871,169
1132785,9062822043,711.0,76.5,0.855,73
1132872,9063518043,696.0,76.5,0.864,73
1132959,9064214047,696.0,77.3,0.851,73
1133049,9064934043,719.0,78.1,0.851,73
1133140,9065662043,728.0,79.5,0.831,73
1133272,9066718043,1056.0,79.5,0.47,185
1133369,9067494045,776.0,79.5,0.478,185
1133460,9068222043,727.0,79.5,0.468,185
1133555,9068982043,760.0,79.5,0.476,185
1133644,9069694045,712.0,79.5,0.479,185
1133733,9070406044,711.0,79.5,0.487,185
1133858,9071406043,999.0,79.5,0.792,169
1133946,9072110043,704.0,82.4,0.809,73
1134036,9072830043,720.0,83.3,0.88,73
1134128,9073566043,736.0,83.3,0.866,73
1134216,9074270046,704.0,83.3,0.851,73
1134305,9074982043,711.0,83.8,0.861,73
1134398,9075726043,744.0,83.3,0.852,73
1134493,9076486043,760.0,83.3,0.828,73
1134585,9077222047,736.0,82.4,0.823,73
1134678,9077966043,743.0,81.5,0.852,73
1134771,9078710047,744.0,81.5,0.851,73
1134858,9079406043,695.0,81.5,0.86,73
1134948,9080126043,720.0,81.5,0.873,73
1135037,9080838043,712.0,81.5,0.865,73
1135123,9081526043,688.0,81.5,0.851,73
1135211,9082230043,704.0,83.3,0.852,73
1135303,9082966043,736.0,83.3,0.872,73
1135398,9083726043,760.0,83.3,0.869,73
1135490,9084462043,736.0,83.3,0.853,73
1135576,9085150043,688.0,84.3,0.836,73
1135660,9085822043,672.0,84.3,0.864,73
1135744,9086494044,672.0,85.2,0.864,73
1135827,9087158043,663.0,87.2,0.852,73
1135906,9087790044,632.0,87.2,0.825,73
1136066,9089070043,1279.0,87.2,0.338,185
1136155,9089782046,712.0,87.2,0.585,185
1136246,9090510045,727.0,87.2,0.838,169
1136330,9091182047,672.0,87.2,0.794,169
1136412,9091838046,655.0,87.2,0.818,169
1136498,9092526043,687.0,87.2,0.824,169
1136583,9093206044,680.0,88.6,0.837,73
1136670,9093902044,696.0,88.6,0.878,73
1136757,9094598046,696.0,88.6,0.88,73
1136843,9095286043,687.0,88.6,0.873,73
1136929,9095974043,688.0,88.6,0.87,73
1137018,9096686043,712.0,87.2,0.885,73
1137109,9097414045,728.0,87.2,0.862,73
1137205,9098182047,768.0,86.2,0.835,73
1137301,9098950047,768.0,86.2,0.802,73
1137397,9099718046,767.0,84.3,0.801,73
1137500,9100542047,824.0,84.3,0.785,169
1137606,9101390043,847.0,84.3,0.316,185
1137708,9102206043,816.0,84.3,0.819,169
1137803,9102966043,760.0,84.3,0.831,169
1137900,9103742043,776.0,84.3,0.859,169
1137998,9104526043,784.0,84.3,0.868,169
1138093,9105286043,760.0,84.3,0.854,73
1138190,9106062045,776.0,82.4,0.88,73
1138289,9106854046,792.0,78.1,0.876,73
1138394,9107694043,839.0,78.1,0.847,73
1138501,9108550043,856.0,78.1,0.816,73
1138610,9109422045,872.0,77.3,0.795,73
1138720,9110302043,879.0,77.3,0.788,169
1138829,9111174047,872.0,77.3,0.774,185
1138877,9111558043,383.0,77.3,0.505,169
1138944,9112094043,536.0,77.3,0.851,169
1139069,9113094046,1000.0,77.3,0.881,169
1139185,9114022046,928.0,77.3,0.852,169
1139299,9114934044,911.0,76.2,0.818,73
1139415,9115862043,927.0,75.8,0.864,73
1139525,9116742043,880.0,71.4,0.834,73
1139631,9117590046,848.0,70.8,0.867,73
1139731,9118390043,799.0,70.8,0.844,73
1139827,9119158047,768.0,70.8,0.846,73
1139920,9119902044,743.0,70.8,0.836,73
1140005,9120582046,680.0,75.0,0.808,73
1140171,9121910043,1327.0,75.0,0.813,169
1140266,9122670043,760.0,75.0,0.827,169
1140359,9123414043,744.0,75.0,0.831,169
1140456,9124190043,776.0,75.0,0.833,169
1140558,9125006043,816.0,75.0,0.821,169
1140659,9125814043,808.0,75.0,0.792,169
1140758,9126606043,792.0,76.2,0.795,73
1140851,9127350047,744.0,78.1,0.829,73
1140945,9128102043,751.0,79.7,0.852,73
1141060,9129022043,920.0,79.7,0.838,73
1141178,9129966043,944.0,79.7,0.79,169
1141298,9130926047,960.0,79.7,0.32,185
1141436,9132030043,1103.0,79.7,0.858,169
1141568,9133086047,1056.0,79.7,0.771,169
1141621,9133510047,424.0,79.7,0.481,185
1141681,9133990046,479.0,79.7,0.617,185
1141782,9134798043,807.0,79.7,0.84,169
1141883,9135606046,808.0,79.8,0.855,73
1141985,9136422047,816.0,79.8,0.865,73
1142085,9137222047,800.0,79.8,0.853,73
1142181,9137990047,768.0,79.7,0.846,73
1142274,9138734043,743.0,79.7,0.869,73
1142368,9139486043,752.0,79.8,0.876,73
1142459,9140214043,728.0,79.8,0.868,73
1142554,9140974043,760.0,78.9,0.885,73
1142650,9141742043,768.0,78.9,0.873,73
1142754,9142574043,832.0,78.1,0.871,73
1142866,9143470043,896.0,78.1,0.829,73
1142978,9144366043,896.0,78.1,0.798,73
1143090,9145262043,896.0,78.1,0.778,169
1143198,9146126047,864.0,78.1,0.76,185
1143303,9146966043,839.0,78.1,0.327,185
1143411,9147830046,864.0,78.1,0.827,169
1143513,9148646047,816.0,78.1,0.826,169
1143615,9149462043,815.0,78.1,0.828,73
1143714,9150254043,792.0,75.8,0.853,73
1143812,9151038043,784.0,75.8,0.868,73
1143910,9151822043,784.0,75.8,0.874,73
1144006,9152590043,768.0,75.8,0.861,73
1144096,9153310043,720.0,75.8,0.847,73
1144181,9153990047,680.0,76.5,0.837,73
1144319,9155094043,1103.0,76.5,0.481,185
1144451,9156150043,1056.0,76.5,0.735,185
1144543,9156886043,736.0,76.5,0.743,185
1144715,9158262046,688.0,76.5,0.826,169
1144803,9158966045,703.0,76.5,0.83,169
1144893,9159686046,720.0,76.5,0.845,73
1144981,9160390043,703.0,76.5,0.85,73
1145069,9161094044,704.0,78.1,0.854,73
1145163,9161846043,751.0,79.8,0.855,73
1145265,9162662045,816.0,79.8,0.861,73
1145368,9163486043,823.0,79.8,0.848,73
1145471,9164310043,824.0,79.8,0.817,73
1145567,9165078043,768.0,78.1,0.824,73
1145669,9165894043,816.0,73.7,0.863,73
1145772,9166718043,824.0,73.5,0.85,73
1145880,9167582047,864.0,73.5,0.843,73
1145985,9168422043,839.0,72.8,0.822,73
1146089,9169254043,832.0,72.8,0.845,73
1146196,9170110043,856.0,72.8,0.839,73
1146304,9170974043,864.0,72.1,0.82,73
1146411,9171830043,856.0,71.4,0.829,73
1146519,9172694043,864.0,70.1,0.835,73
1146625,9173542046,848.0,70.1,0.824,73
1146727,9174358045,815.0,70.1,0.819,73
1146826,9175150043,791.0,70.8,0.845,73
1146922,9175918045,768.0,70.8,0.879,73
1147011,9176630043,711.0,70.8,0.85,73
1147099,9177334043,704.0,73.5,0.825,73
1147240,9178462043,1128.0,73.5,0.501,169
1147382,9179598043,1136.0,73.5,0.761,185
1147479,9180374043,776.0,73.5,0.772,169
1147535,9180822043,448.0,73.5,0.487,185
1147672,9181918043,1096.0,73.5,0.768,169
1147764,9182654043,736.0,75.8,0.798,73
1147865,9183462043,808.0,75.8,0.878,73
1147967,9184278043,816.0,75.8,0.856,73
1148070,9185102046,824.0,75.8,0.845,73
1148180,9185982047,880.0,75.8,0.838,73
1148291,9186870043,887.0,74.3,0.817,73
1148400,9187742043,872.0,73.5,0.796,73
1148514,9188654043,912.0,73.5,0.799,169
1148624,9189534046,880.0,73.5,0.777,169
1148734,9190414044,879.0,73.5,0.791,169
1148784,9190814047,400.0,73.5,0.513,169
1148853,9191366043,551.0,73.5,0.556,185
1148960,9192222045,856.0,73.5,0.597,185
1149068,9193086045,864.0,73.5,0.838,169
1149177,9193958043,871.0,73.5,0.854,73
1149285,9194822043,864.0,72.8,0.875,73
1149384,9195614043,792.0,72.8,0.852,73
1149485,9196422043,808.0,72.8,0.869,73
1149586,9197230043,808.0,72.8,0.874,73
1149688,9198046047,816.0,73.5,0.848,73
1149789,9198854045,807.0,74.3,0.877,73
1149894,9199694043,839.0,74.3,0.87,73
1150002,9200558046,864.0,74.3,0.856,73
1150106,9201390043,831.0,73.5,0.86,73
1150212,9202238043,848.0,73.5,0.871,73
1150319,9203094046,856.0,72.1,0.851,73
1150422,9203918044,823.0,72.1,0.833,73
1150527,9204758043,839.0,71.4,0.858,73
1150633,9205606043,848.0,71.4,0.873,73
1150739,9206454043,848.0,70.8,0.858,73
1150838,9207246044,792.0,70.8,0.851,73
1150942,9208078045,832.0,71.4,0.872,73
1151047,9208918043,839.0,71.4,0.879,73
1151158,9209806043,888.0,71.4,0.881,73
1151270,9210702043,896.0,71.4,0.871,73
1151383,9211606043,904.0,70.8,0.869,73
1151498,9212526043,920.0,70.8,0.846,73
1151605,9213382043,856.0,70.1,0.84,73
1151713,9214246043,864.0,69.4,0.852,73
1151821,9215110047,864.0,69.4,0.847,73
1151922,9215918043,807.0,69.4,0.848,73
1152021,9216710043,792.0,69.4,0.866,73
1152122,9217518043,808.0,69.4,0.856,73
1152216,9218270043,752.0,70.1,0.827,73
1152393,9219686045,1416.0,70.1,0.769,185
1152440,9220062043,375.0,70.1,0.503,169
1152574,9221134043,1072.0,70.1,0.828,169
1152671,9221910043,776.0,70.1,0.836,169
1152767,9222678047,768.0,70.1,0.831,169
1152859,9223414047,736.0,70.1,0.853,169
1152955,9224182047,768.0,71.0,0.863,73
1153059,9225014043,831.0,72.1,0.864,73
1153173,9225926046,912.0,72.1,0.857,73
1153284,9226814043,887.0,72.1,0.848,73
1153407,9227798047,984.0,72.1,0.829,73
1153531,9228790043,991.0,72.1,0.788,169
1153640,9229662047,872.0,72.1,0.75,169
1153740,9230462047,800.0,72.1,0.784,169
1153840,9231262047,800.0,72.1,0.808,169
1153942,9232078047,816.0,72.1,0.826,169
1154044,9232894043,815.0,71.0,0.819,73
1154145,9233702043,808.0,71.0,0.859,73
1154248,9234526043,824.0,71.0,0.875,73
1154352,9235358043,832.0,71.0,0.867,73
1154453,9236166045,808.0,72.1,0.845,73
1154556,9236990043,823.0,72.1,0.867,73
1154656,9237790045,800.0,72.8,0.846,73
1154749,9238534043,743.0,72.8,0.826,73
1154844,9239294043,760.0,74.3,0.841,73
1155025,9240742043,1448.0,74.3,0.767,185
1155110,9241422047,680.0,74.3,0.769,169
1155193,9242086044,663.0,74.3,0.798,169
1155279,9242774047,688.0,74.3,0.866,169
1155369,9243494043,719.0,74.3,0.885,169
1155461,9244230045,736.0,74.3,0.875,169
1155552,9244958043,727.0,74.3,0.847,73
1155640,9245662043,704.0,74.3,0.849,73
1155730,9246382044,720.0,75.0,0.85,73
1155824,9247134043,751.0,78.9,0.847,73
1155923,9247926047,792.0,78.9,0.85,73
1156028,9248766043,839.0,78.9,0.849,73
1156132,9249598043,832.0,78.9,0.855,73
1156237,9250438047,840.0,75.8,0.862,73
1156343,9251286047,848.0,74.2,0.851,73
1156447,9252118045,831.0,72.1,0.829,73
1156550,9252942043,823.0,72.1,0.86,73
1156658,9253806043,864.0,72.1,0.857,73
1156762,9254638043,832.0,72.1,0.855,73
1156867,9255478045,840.0,71.4,0.838,73
1156965,9256262043,783.0,72.1,0.85,73
1157062,9257038043,776.0,72.1,0.863,73
1157156,9257790043,752.0,72.1,0.869,73
1157249,9258534043,744.0,72.8,0.814,73
1157340,9259262043,728.0,76.5,0.823,73
1157517,9260678043,1416.0,76.5,0.786,185
1157602,9261358043,680.0,76.5,0.791,169
1157690,9262062043,704.0,76.5,0.821,169
1157780,9262782046,720.0,76.5,0.825,169
1157867,9263478046,696.0,76.5,0.844,169
1157960,9264222043,743.0,76.5,0.871,169
1158059,9265014045,792.0,76.5,0.852,73
1158156,9265790043,775.0,77.3,0.865,73
1158255,9266582043,792.0,77.3,0.869,73
1158353,9267366043,784.0,77.3,0.841,73
1158447,9268118043,752.0,77.3,0.851,73
1158544,9268894043,776.0,77.3,0.861,73
1158646,9269710043,816.0,77.3,0.872,73
1158747,9270518043,808.0,76.5,0.846,73
1158845,9271302046,784.0,76.5,0.834,73
1158945,9272102043,799.0,76.5,0.855,73
1159047,9272918043,816.0,75.8,0.852,73
1159148,9273726043,808.0,75.0,0.832,73
1159247,9274518047,792.0,75.0,0.857,73
1159344,9275294043,775.0,75.0,0.865,73
1159440,9276062043,768.0,75.0,0.858,73
1159533,9276806043,744.0,75.8,0.852,73
1159629,9277574047,768.0,76.5,0.867,73
1159724,9278334043,759.0,77.3,0.861,73
1159817,9279078047,744.0,78.1,0.855,73
1159913,9279846043,767.0,78.1,0.863,73
1160008,9280606043,760.0,78.1,0.842,73
1160097,9281318047,712.0,78.9,0.827,73
1160182,9281998043,679.0,78.9,0.803,73
1160318,9283086043,1088.0,78.9,0.462,185
1160437,9284038043,952.0,78.9,0.793,169
1160522,9284718047,680.0,78.9,0.819,169
1160609,9285414043,695.0,78.9,0.809,169
1160698,9286126043,712.0,78.9,0.824,169
1160783,9286806045,680.0,78.9,0.818,169
1160868,9287486043,679.0,78.9,0.858,73
1160955,9288182043,696.0,78.9,0.874,73
1161044,9288894043,712.0,80.6,0.868,73
1161131,9289590043,696.0,84.3,0.839,73
1161219,9290294047,704.0,84.3,0.856,73
1161309,9291014047,720.0,84.3,0.861,73
1161397,9291718047,704.0,85.2,0.852,73
1161480,9292382043,663.0,85.2,0.847,73
1161565,9293062043,680.0,85.2,0.87,73
1161651,9293750043,688.0,86.2,0.86,73
1161737,9294438046,688.0,86.2,0.861,73
1161820,9295102043,663.0,87.2,0.842,73
1161903,9295766047,664.0,87.2,0.857,73
1161989,9296454045,687.0,87.2,0.864,73
1162078,9297166046,712.0,87.2,0.864,73
1162165,9297862043,695.0,87.2,0.851,73
1162246,9298510043,648.0,87.2,0.838,73
1162325,9299142043,632.0,87.2,0.823,73
1162454,9300174045,1032.0,87.2,0.439,185
1162488,9300446047,272.0,87.2,0.577,189
1162575,9301142043,695.0,87.2,0.844,169
1162662,9301838043,696.0,87.2,0.835,169
1162746,9302510044,672.0,87.2,0.851,169
1162831,9303190047,680.0,87.2,0.849,169
1162915,9303862045,671.0,87.2,0.847,169
1163000,9304542047,680.0,88.9,0.847,73
1163084,9305214044,671.0,89.3,0.876,73
1163169,9305894043,679.0,88.9,0.866,73
1163251,9306550043,656.0,88.9,0.872,73
1163333,9307206047,656.0,89.3,0.878,73
1163416,9307870043,663.0,90.4,0.883,73
1163502,9308558043,688.0,90.4,0.89,73
1163588,9309246046,688.0,89.3,0.873,73
1163673,9309926044,679.0,88.9,0.854,73
1163758,9310606043,679.0,88.2,0.888,73
1163843,9311286043,680.0,88.2,0.877,73
1163925,9311942043,656.0,88.2,0.875,73
1164006,9312590043,648.0,88.2,0.873,73
1164087,9313238043,648.0,88.2,0.877,73
1164167,9313878044,640.0,88.2,0.865,73
1164247,9314518043,639.0,91.5,0.862,73
1164325,9315142047,624.0,92.6,0.844,73
1164401,9315750043,607.0,92.6,0.811,73
1164549,9316934043,1184.0,92.6,0.774,185
1164624,9317534047,600.0,92.6,0.778,185
1164698,9318126043,591.0,92.6,0.782,169
1164772,9318718045,592.0,92.6,0.797,169
1164846,9319310043,591.0,92.6,0.794,169
1164920,9319902046,592.0,92.6,0.814,169
1164995,9320502043,599.0,92.6,0.815,169
1165071,9321110046,608.0,92.6,0.836,73
1165145,9321702043,591.0,93.8,0.836,73
1165219,9322294043,592.0,93.8,0.847,73
1165296,9322910043,616.0,96.2,0.867,73
1165375,9323542043,632.0,96.2,0.861,73
1165455,9324182043,640.0,96.2,0.863,73
1165535,9324822043,640.0,96.2,0.857,73
1165615,9325462043,640.0,94.9,0.858,73
1165694,9326094043,632.0,94.9,0.869,73
1165778,9326766043,672.0,94.9,0.879,73
1165861,9327430045,664.0,93.8,0.867,73
1165942,9328078045,648.0,93.8,0.881,73
1166026,9328750043,671.0,93.8,0.873,73
1166110,9329422043,672.0,92.6,0.866,73
1166196,9330110043,688.0,90.4,0.852,73
1166281,9330790043,680.0,89.3,0.849,73
1166363,9331446043,656.0,89.3,0.873,73
1166445,9332102043,656.0,89.3,0.88,73
1166528,9332766046,664.0,90.4,0.883,73
1166610,9333422043,655.0,90.4,0.873,73
1166693,9334086043,664.0,90.4,0.876,73
1166768,9334686043,600.0,90.4,0.871,73
1166851,9335350046,664.0,90.4,0.898,73
1166934,9336014043,663.0,90.4,0.875,73
1167020,9336702044,688.0,90.4,0.871,73
1167104,9337374047,672.0,90.4,0.87,73
1167188,9338046043,671.0,90.4,0.899,73
1167270,9338702043,656.0,90.4,0.872,73
1167349,9339334044,632.0,90.4,0.869,73
1167425,9339942046,608.0,90.4,0.849,73
1167505,9340582044,639.0,90.4,0.851,73
1167585,9341222044,640.0,91.5,0.854,73
1167667,9341878044,656.0,91.5,0.869,73
1167753,9342566043,687.0,91.5,0.882,73
1167837,9343238047,672.0,91.5,0.88,73
1167921,9343910046,671.0,91.5,0.87,73
1168006,9344590043,679.0,91.5,0.888,73
1168096,9345310043,720.0,89.3,0.878,73
1168192,9346078043,768.0,89.3,0.84,73
1168286,9346830043,752.0,88.2,0.816,73
1168379,9347574047,744.0,87.2,0.791,73
1168470,9348302043,727.0,87.2,0.79,169
1168561,9349030043,728.0,87.2,0.792,169
1168654,9349774043,744.0,87.2,0.788,169
1168745,9350502046,728.0,87.2,0.769,185
1168833,9351206043,703.0,87.2,0.774,185
1168924,9351934043,728.0,87.2,0.782,185
1169015,9352662046,728.0,87.2,0.311,185
1169112,9353438043,775.0,87.2,0.833,169
1169208,9354206047,768.0,87.2,0.849,73
1169303,9354966043,759.0,83.3,0.861,73
1169396,9355710043,744.0,80.6,0.881,73
1169488,9356446043,736.0,80.6,0.877,73
1169582,9357198043,752.0,80.6,0.876,73
1169678,9357966043,768.0,79.8,0.859,73
1169773,9358726047,760.0,79.8,0.855,73
1169867,9359478047,752.0,79.8,0.867,73
1169956,9360190043,711.0,79.8,0.87,73
1170047,9360918043,728.0,79.8,0.885,73
1170141,9361670043,752.0,79.8,0.886,73
1170236,9362430043,760.0,79.8,0.889,73
1170325,9363142043,712.0,79.8,0.869,73
1170412,9363838045,696.0,79.8,0.863,73
1170508,9364606046,768.0,79.8,0.867,73
1170607,9365398043,791.0,79.8,0.867,73
1170711,9366230047,832.0,79.8,0.866,73
1170819,9367094043,863.0,78.9,0.835,73
1170923,9367926043,832.0,78.1,0.814,73
1171024,9368734043,808.0,75.8,0.729,73
1171114,9369454044,720.0,75.8,0.847,73
1171198,9370126043,671.0,75.8,0.877,73
1171281,9370790044,664.0,75.8,0.887,73
1171361,9371430043,639.0,75.8,0.835,73
1171517,9372678047,1248.0,75.8,0.812,169
1171593,9373286047,608.0,75.8,0.839,169
1171674,9373934043,647.0,75.8,0.867,169
1171760,9374622046,688.0,75.8,0.833,169
1171893,9375686046,1064.0,75.8,0.493,185
1171993,9376486043,799.0,75.8,0.474,185
1172088,9377246046,760.0,75.8,0.507,169
1172153,9377766045,519.0,75.8,0.806,169
1172256,9378590047,824.0,75.4,0.809,73
1172360,9379422043,831.0,75.4,0.851,73
1172465,9380262046,840.0,75.4,0.846,73
1172570,9381102043,839.0,75.4,0.85,73
1172667,9381878043,776.0,77.3,0.826,73
1172755,9382582043,704.0,77.3,0.851,73
1172843,9383286043,704.0,77.3,0.87,73
1172936,9384030043,744.0,77.3,0.865,73
1173033,9384806044,776.0,77.3,0.87,73
1173129,9385574047,768.0,77.3,0.843,73
1173227,9386358043,783.0,77.3,0.852,73
1173328,9387166043,808.0,77.3,0.863,73
1173435,9388022044,856.0,77.3,0.859,73
1173539,9388854043,831.0,77.3,0.848,73
1173637,9389638043,784.0,76.5,0.845,73
1173739,9390454043,816.0,76.5,0.852,73
1173848,9391326043,872.0,74.3,0.838,73
1173959,9392214044,888.0,73.5,0.83,73
1174066,9393070047,856.0,72.1,0.806,73
1174167,9393878046,807.0,72.1,0.806,73
1174266,9394670043,791.0,72.1,0.808,73
1174362,9395438047,768.0,73.5,0.842,73
1174458,9396206047,768.0,74.3,0.88,73
1174556,9396990043,783.0,74.3,0.878,73
1174659,9397814043,824.0,74.3,0.864,73
1174770,9398702047,888.0,74.3,0.857,73
1174879,9399574044,871.0,74.3,0.836,73
1174988,9400446044,872.0,74.3,0.84,73
1175098,9401326043,879.0,72.8,0.825,73
1175202,9402158043,832.0,72.1,0.825,73
1175305,9402982047,824.0,72.1,0.827,73
1175406,9403790043,807.0,72.1,0.826,73
1175502,9404558043,768.0,72.1,0.832,73
1175599,9405334043,776.0,72.1,0.859,73
1175701,9406150043,816.0,72.8,0.873,73
1175807,9406998043,848.0,72.8,0.862,73
1175914,9407854044,856.0,72.8,0.855,73
1176015,9408662047,808.0,73.5,0.837,73
1176118,9409486043,823.0,73.5,0.856,73
1176216,9410270044,784.0,74.3,0.834,73
1176304,9410974044,704.0,74.3,0.832,73
1176389,9411654043,679.0,74.3,0.826,73
1176521,9412710043,1056.0,74.3,0.519,169
1176608,9413406043,696.0,74.3,0.544,169
1176717,9414278046,872.0,74.3,0.524,169
1176798,9414926044,647.0,74.3,0.877,169
1176909,9415814043,887.0,74.3,0.864,169
1177019,9416694043,880.0,74.3,0.844,169
1177130,9417582043,888.0,74.3,0.823,73
1177236,9418430043,848.0,74.3,0.866,73
1177337,9419238045,808.0,74.3,0.861,73
1177438,9420046044,807.0,74.3,0.857,73
1177537,9420838043,791.0,75.8,0.853,73
1177640,9421662043,824.0,75.8,0.862,73
1177741,9422470043,808.0,74.3,0.852,73
1177840,9423262043,792.0,74.3,0.85,73
1177933,9424006043,744.0,74.3,0.833,73
1178027,9424758043,752.0,74.3,0.865,73
1178123,9425526043,768.0,75.8,0.858,73
1178224,9426334043,808.0,75.8,0.864,73
1178324,9427134043,800.0,75.8,0.845,73
1178415,9427862043,728.0,75.8,0.833,73
1178515,9428662043,800.0,75.8,0.859,73
1178621,9429510043,848.0,75.8,0.87,73
1178742,9430478044,968.0,75.0,0.852,73
1178866,9431470043,991.0,75.0,0.799,73
1178914,9431854043,384.0,75.0,0.482,185
1179094,9433294043,1440.0,75.0,0.316,185
1179198,9434126044,832.0,75.0,0.546,185
1179301,9434950045,824.0,75.0,0.824,169
1179405,9435782043,831.0,75.0,0.83,169
1179510,9436622044,840.0,74.3,0.821,73
1179614,9437454046,832.0,72.1,0.865,73
1179728,9438366043,911.0,70.8,0.873,73
1179846,9439310043,944.0,69.8,0.85,73
1179969,9440294043,984.0,65.8,0.812,73
1180088,9441246043,952.0,63.6,0.812,73
1180202,9442158043,912.0,63.6,0.817,73
1180308,9443006044,848.0,65.8,0.862,73
1180413,9443846047,840.0,65.8,0.885,73
1180521,9444710047,864.0,65.8,0.875,73
1180624,9445534043,823.0,65.8,0.865,73
1180721,9446310043,776.0,69.4,0.826,73
1180862,9447438045,1128.0,69.4,0.485,185
1180957,9448198043,759.0,69.4,0.529,169
1181028,9448766046,568.0,69.4,0.832,169
1181160,9449822043,1055.0,69.4,0.876,169
1181283,9450806047,984.0,69.4,0.84,169
1181406,9451790046,983.0,69.4,0.814,73
1181525,9452742043,951.0,69.4,0.855,73
1181645,9453702047,960.0,69.4,0.865,73
1181764,9454654043,951.0,69.4,0.855,73
1181878,9455566043,912.0,65.8,0.83,73
1181986,9456430043,864.0,65.8,0.858,73
1182094,9457294043,864.0,65.8,0.874,73
1182198,9458126044,832.0,65.8,0.867,73
1182299,9458934043,807.0,65.8,0.846,73
1182402,9459758043,824.0,69.4,0.843,73
1182509,9460614043,856.0,69.4,0.856,73
1182618,9461486045,872.0,69.4,0.861,73
1182720,9462302043,815.0,70.1,0.826,73
1182822,9463118046,816.0,72.1,0.835,73
1182929,9463974043,855.0,72.1,0.859,73
1183042,9464878047,904.0,72.1,0.885,73
1183161,9465830047,952.0,70.1,0.868,73
1183278,9466766047,936.0,70.1,0.853,73
1183387,9467638044,871.0,68.8,0.842,73
1183491,9468470043,831.0,68.8,0.88,73
1183600,9469342043,872.0,68.8,0.881,73
1183710,9470222045,880.0,68.8,0.874,73
1183822,9471118043,895.0,68.2,0.868,73
1183930,9471982046,864.0,68.2,0.866,73
1184039,9472854043,871.0,68.8,0.883,73
1184146,9473710043,856.0,68.8,0.874,73
1184259,9474614044,904.0,68.8,0.882,73
1184374,9475534043,919.0,68.8,0.881,73
1184487,9476438043,904.0,68.2,0.86,73
1184600,9477342043,904.0,67.0,0.878,73
1184711,9478230043,888.0,67.0,0.879,73
1184823,9479126044,896.0,67.0,0.875,73
1184930,9479982044,856.0,67.0,0.854,73
1185032,9480798043,815.0,67.0,0.869,73
1185135,9481622043,824.0,67.0,0.861,73
1185237,9482438043,816.0,67.6,0.845,73
1185338,9483246045,808.0,70.1,0.799,73
1185529,9484774043,1527.0,70.1,0.776,169
1185626,9485550047,776.0,70.1,0.787,169
1185724,9486334043,783.0,70.1,0.785,169
1185815,9487062047,728.0,70.1,0.812,169
1185908,9487806046,743.0,70.1,0.859,169
1186007,9488598043,791.0,70.1,0.866,169
1186110,9489422043,824.0,70.1,0.861,73
1186211,9490230047,808.0,72.8,0.843,73
1186315,9491062045,831.0,72.8,0.866,73
1186422,9491918046,856.0,72.8,0.857,73
1186525,9492742043,823.0,72.8,0.858,73
1186627,9493558043,816.0,72.8,0.865,73
1186737,9494438044,880.0,72.8,0.875,73
1186856,9495390043,951.0,72.1,0.844,73
1186977,9496358043,968.0,70.1,0.808,73
1187095,9497302043,944.0,70.1,0.779,73
1187204,9498174045,872.0,68.8,0.808,73
1187313,9499046045,872.0,68.8,0.82,73
1187420,9499902043,855.0,68.8,0.808,73
1187523,9500726043,824.0,68.8,0.815,73
1187629,9501574047,848.0,68.8,0.851,73
1187746,9502510045,935.0,68.8,0.836,73
1187861,9503430045,920.0,68.8,0.807,73
1187978,9504366044,935.0,68.8,0.815,73
1188092,9505278045,912.0,68.8,0.799,169
1188197,9506118045,840.0,68.8,0.8,169
1188295,9506902045,784.0,68.8,0.828,169
1188393,9507686043,783.0,68.8,0.851,169
1188491,9508470046,784.0,68.8,0.859,169
1188586,9509230043,759.0,68.8,0.834,169
1188684,9510014045,784.0,68.8,0.829,73
1188788,9510846043,831.0,68.8,0.867,73
1188897,9511718047,872.0,68.8,0.865,73
1188998,9512526043,807.0,68.8,0.824,73
1189084,9513214043,688.0,68.8,0.762,73
1189261,9514630047,1416.0,68.8,0.826,169
1189361,9515430043,799.0,68.8,0.835,169
1189465,9516262045,832.0,68.8,0.831,169
1189570,9517102046,840.0,68.8,0.809,169
1189665,9517862045,759.0,68.8,0.81,169
1189763,9518646045,784.0,66.3,0.833,73
1189864,9519454043,807.0,68.8,0.843,73
1189965,9520262043,808.0,72.1,0.848,73
1190060,9521022043,760.0,74.3,0.802,73
1190245,9522502043,1480.0,74.3,0.328,185
1190388,9523646046,1144.0,74.3,0.48,185
1190492,9524478046,832.0,74.3,0.47,185
1190593,9525286043,807.0,74.3,0.457,185
1190737,9526438043,1152.0,74.3,0.738,185
1190773,9526726043,288.0,74.3,0.509,173
1190913,9527846044,1120.0,74.3,0.8,169
1190999,9528534043,687.0,74.3,0.826,73
1191082,9529198047,664.0,74.3,0.844,73
1191167,9529878043,679.0,74.3,0.815,73
1191336,9531230043,1352.0,74.3,0.795,169
1191426,9531950043,720.0,74.3,0.805,169
1191517,9532678043,728.0,74.3,0.817,169
1191609,9533414043,736.0,74.3,0.814,169
1191697,9534118043,704.0,74.3,0.843,169
1191789,9534854043,736.0,74.3,0.869,169
1191882,9535598044,744.0,74.3,0.878,73
1191977,9536358043,759.0,74.3,0.868,73
1192067,9537078043,720.0,78.9,0.83,73
1192151,9537750043,672.0,78.9,0.812,73
1192239,9538454043,704.0,78.9,0.6,185
1192379,9539574043,1120.0,78.9,0.467,185
1192473,9540326044,752.0,78.9,0.456,185
1192523,9540726047,400.0,78.9,0.826,169
1192621,9541510047,784.0,78.9,0.83,169
1192722,9542318047,808.0,78.9,0.868,169
1192827,9543158045,839.0,78.9,0.861,73
1192931,9543990047,832.0,78.9,0.853,73
1193039,9544854043,863.0,78.9,0.851,73
1193149,9545734047,880.0,77.6,0.827,73
1193261,9546630043,895.0,77.6,0.807,169
1193307,9546998044,368.0,77.6,0.497,185
1193416,9547870047,872.0,77.6,0.502,169
1193526,9548750043,879.0,77.6,0.485,185
1193591,9549270047,520.0,77.6,0.84,169
1193704,9550174046,903.0,77.6,0.861,169
1193816,9551070043,895.0,77.6,0.892,73
1193934,9552014043,944.0,77.6,0.867,73
1194049,9552934043,920.0,72.1,0.807,73
1194157,9553798043,864.0,69.4,0.83,73
1194262,9554638043,840.0,69.4,0.824,73
1194357,9555398045,760.0,69.4,0.824,73
1194447,9556118047,720.0,69.4,0.863,73
1194536,9556830043,711.0,71.4,0.836,73
1194673,9557926046,1096.0,71.4,0.478,185
1194757,9558598044,671.0,71.4,0.534,169
1194855,9559382043,783.0,71.4,0.514,169
1195011,9560630043,1248.0,71.4,0.77,169
1195052,9560958044,328.0,71.4,0.503,169
1195159,9561814043,855.0,71.4,0.504,169
1195272,9562718050,904.0,71.4,0.502,169
1195341,9563270048,551.0,71.4,0.835,169
1195463,9564246046,975.0,72.8,0.883,73
1195587,9565238046,992.0,71.4,0.862,73
1195709,9566214043,975.0,71.4,0.834,73
1195832,9567198043,984.0,71.4,0.803,73
1195951,9568150043,952.0,71.4,0.822,73
1196062,9569038043,888.0,67.6,0.838,73
1196170,9569902043,864.0,67.6,0.865,73
1196279,9570774043,872.0,67.6,0.867,73
1196384,9571614043,840.0,67.6,0.865,73
1196486,9572430043,816.0,67.6,0.865,73
1196592,9573278043,848.0,68.8,0.873,73
1196699,9574134047,856.0,69.4,0.862,73
1196801,9574950043,815.0,70.1,0.85,73
1196906,9575790044,840.0,70.8,0.859,73
1197011,9576630043,839.0,71.4,0.858,73
1197109,9577414043,784.0,71.4,0.838,73
1197215,9578262044,848.0,71.4,0.853,73
1197320,9579102043,839.0,71.4,0.856,73
1197422,9579918044,816.0,71.4,0.851,73
1197523,9580726047,808.0,71.4,0.843,73
1197628,9581566043,839.0,71.4,0.855,73
1197728,9582366046,800.0,71.4,0.835,73
1197828,9583166043,799.0,73.5,0.83,73
1197934,9584014044,848.0,73.5,0.858,73
1198041,9584870043,855.0,71.4,0.866,73
1198151,9585750045,880.0,71.4,0.866,73
1198255,9586582046,832.0,72.1,0.839,73
1198361,9587430047,848.0,71.4,0.875,73
1198471,9588310046,879.0,70.8,0.88,73
1198583,9589206043,895.0,70.8,0.875,73
1198698,9590126043,920.0,70.1,0.867,73
1198811,9591030043,904.0,68.2,0.839,73
1198924,9591934043,904.0,68.2,0.866,73
1199035,9592822043,888.0,67.6,0.859,73
1199144,9593694043,872.0,67.6,0.87,73
1199255,9594582047,888.0,67.6,0.881,73
1199363,9595446043,863.0,67.6,0.869,73
1199471,9596310046,864.0,67.6,0.872,73
1199575,9597142043,831.0,67.6,0.849,73
1199681,9597990043,848.0,68.8,0.865,73
1199788,9598846043,856.0,69.4,0.866,73
1199893,9599686046,840.0,69.4,0.851,73
1200000,9600542043,855.0,70.1,0.88,73
1200111,9601430043,888.0,70.1,0.886,73
1200216,9602270044,840.0,70.1,0.864,73
1200329,9603174043,903.0,70.1,0.892,73
1200437,9604038043,864.0,70.1,0.877,73
1200537,9604838046,800.0,70.1,0.855,73
1200638,9605646044,807.0,70.1,0.858,73
1200740,9606462045,816.0,71.4,0.853,73
1200840,9607262043,799.0,71.4,0.838,73
1200948,9608126043,864.0,71.4,0.853,73
1201054,9608974043,848.0,71.4,0.86,73
1201158,9609806043,832.0,72.1,0.848,73
1201261,9610630047,824.0,72.8,0.846,73
1201367,9611478043,847.0,72.8,0.876,73
1201467,9612278047,800.0,72.8,0.847,73
1201564,9613054046,775.0,72.8,0.842,73
1201664,9613854043,799.0,72.8,0.852,73
1201770,9614702043,848.0,72.1,0.86,73
1201873,9615526043,824.0,72.8,0.841,73
1201974,9616334043,808.0,72.8,0.847,73
1202081,9617190047,856.0,72.8,0.867,73
1202189,9618054043,863.0,72.8,0.866,73
1202291,9618870044,816.0,73.5,0.858,73
1202399,9619734047,864.0,72.8,0.871,73
1202497,9620518043,783.0,72.8,0.837,73
1202596,9621310043,792.0,72.8,0.868,73
1202698,9622126043,816.0,73.5,0.861,73
1202804,9622974044,848.0,73.5,0.868,73
1202904,9623774046,800.0,73.5,0.838,73
1203016,9624670044,895.0,73.5,0.873,73
1203132,9625598043,927.0,73.5,0.853,73
1203252,9626558043,960.0,70.8,0.81,73
1203374,9627534045,976.0,70.8,0.801,169
1203506,9628590043,1055.0,70.8,0.801,185
1203556,9628990046,400.0,70.8,0.509,169
1203636,9629630043,639.0,70.8,0.836,169
1203751,9630550046,920.0,70.8,0.837,169
1203863,9631446043,895.0,70.8,0.881,169
1203967,9632278047,832.0,73.4,0.855,73
1204066,9633070047,792.0,73.4,0.869,73
1204167,9633878043,807.0,73.4,0.864,73
1204270,9634702043,824.0,72.8,0.864,73
1204377,9635558045,856.0,72.8,0.858,73
1204493,9636486043,927.0,70.1,0.862,73
1204613,9637446046,960.0,70.1,0.832,73
1204728,9638366045,919.0,70.1,0.81,73
1204848,9639326043,959.0,70.1,0.805,73
1204962,9640238047,912.0,70.1,0.793,169
1205065,9641062043,823.0,70.1,0.799,169
1205162,9641838043,776.0,70.1,0.811,169
1205256,9642590045,752.0,70.1,0.859,169
1205344,9643294044,703.0,70.1,0.856,169
1205472,9644318043,1023.0,70.1,0.515,169
1205558,9645006043,688.0,70.1,0.545,169
1205717,9646278043,1272.0,70.1,0.816,169
1205817,9647078047,800.0,69.7,0.839,73
1205921,9647910046,831.0,69.7,0.861,73
1206028,9648766044,855.0,69.7,0.853,73
1206142,9649678043,911.0,65.8,0.865,73
1206262,9650638047,960.0,65.2,0.868,73
1206372,9651518045,879.0,65.8,0.862,73
1206483,9652406043,887.0,67.6,0.885,73
1206596,9653310045,904.0,67.6,0.876,73
1206698,9654126043,815.0,68.2,0.848,73
1206796,9654910044,784.0,68.2,0.853,73
1206974,9656334043,1423.0,68.2,0.783,169
1207069,9657094043,760.0,68.2,0.803,169
1207161,9657830043,736.0,68.2,0.833,169
1207256,9658590045,760.0,68.2,0.865,169
1207354,9659374043,783.0,68.2,0.858,169
1207446,9660110044,736.0,68.2,0.83,169
1207550,9660942043,831.0,68.2,0.816,73
1207650,9661742046,800.0,68.2,0.842,73
1207750,9662542043,799.0,69.6,0.842,73
1207851,9663350043,808.0,73.5,0.83,73
1207945,9664102043,752.0,74.3,0.794,73
1208084,9665214047,1112.0,74.3,0.484,185
1208185,9666022047,808.0,74.3,0.461,185
1208329,9667174043,1151.0,74.3,0.769,185
1208371,9667510043,336.0,74.3,0.503,169
1208473,9668326047,816.0,74.3,0.497,185
1208574,9669134043,807.0,74.3,0.503,169
1208642,9669678043,544.0,74.3,0.819,169
1208760,9670622043,944.0,74.3,0.874,73
1208872,9671518043,896.0,74.3,0.861,73
1208987,9672438047,920.0,74.3,0.856,73
1209109,9673414046,975.0,73.6,0.813,73
1209225,9674342043,927.0,73.6,0.79,169
1209346,9675310047,968.0,73.6,0.786,185
1209453,9676166043,855.0,73.6,0.776,185
1209507,9676598047,432.0,73.6,0.462,185
1209665,9677862043,1263.0,73.6,0.778,185
1209717,9678278044,416.0,73.6,0.483,185
1209824,9679134045,856.0,73.6,0.472,185
1209973,9680326045,1192.0,73.6,0.759,169
1210076,9681150043,823.0,73.6,0.779,169
1210122,9681518047,368.0,73.6,0.481,185
1210228,9682366043,847.0,73.6,0.521,169
1210315,9683062043,696.0,73.6,0.834,169
1210437,9684038047,976.0,73.6,0.864,73
1210566,9685070047,1032.0,73.6,0.844,169
1210691,9686070043,999.0,73.6,0.79,169
1210745,9686502045,432.0,73.6,0.485,185
1210864,9687454044,951.0,73.6,0.473,185
1210932,9687998045,544.0,73.6,0.85,169
1211047,9688918043,919.0,73.6,0.872,169
1211160,9689822043,904.0,72.6,0.879,73
1211267,9690678043,856.0,70.1,0.871,73
1211381,9691590044,912.0,67.8,0.882,73
1211497,9692518045,928.0,67.0,0.862,73
1211611,9693430043,911.0,65.8,0.866,73
1211730,9694382045,952.0,65.8,0.861,73
1211842,9695278047,896.0,65.8,0.863,73
1211960,9696222045,943.0,65.8,0.866,73
1212074,9697134044,911.0,65.8,0.875,73
1212182,9697998043,863.0,65.8,0.878,73
1212290,9698862043,864.0,65.8,0.881,73
1212392,9699678043,816.0,65.8,0.855,73
1212486,9700430046,752.0,67.0,0.801,73
1212633,9701606046,1176.0,67.0,0.461,185
1212782,9702798043,1191.0,67.0,0.776,169
1212889,9703654043,856.0,67.0,0.78,169
1213001,9704550043,896.0,67.0,0.781,169
1213108,9705406043,856.0,67.0,0.782,169
1213159,9705814047,408.0,67.0,0.482,185
1213272,9706718047,904.0,67.0,0.492,185
1213396,9707710045,991.0,67.0,0.484,185
1213511,9708630046,920.0,67.0,0.47,185
1213576,9709150045,519.0,67.0,0.838,169
1213696,9710110043,959.0,68.2,0.86,73
1213807,9710998043,888.0,68.2,0.869,73
1213920,9711902043,904.0,68.2,0.888,73
1214039,9712854043,952.0,68.2,0.871,73
1214153,9713766043,912.0,68.2,0.85,73
1214266,9714670043,904.0,67.6,0.867,73
1214387,9715638043,968.0,66.4,0.857,73
1214505,9716582043,944.0,66.4,0.836,73
1214623,9717526044,944.0,65.8,0.847,73
1214746,9718510043,983.0,63.6,0.83,73
1214863,9719446043,936.0,63.6,0.815,73
1214981,9720390045,944.0,63.6,0.834,73
1215099,9721334044,943.0,63.6,0.836,73
1215209,9722214046,880.0,63.6,0.85,73
1215330,9723182046,968.0,63.6,0.86,73
1215458,9724206045,1023.0,63.6,0.838,73
1215575,9725142044,935.0,63.6,0.83,73
1215692,9726078046,936.0,63.6,0.853,73
1215801,9726950043,871.0,64.1,0.853,73
1215900,9727742043,792.0,64.1,0.87,73
1216004,9728574043,832.0,64.1,0.862,73
1216105,9729382043,808.0,68.2,0.822,73
1216253,9730566043,1184.0,68.2,0.484,185
1216363,9731446046,880.0,68.2,0.477,185
1216468,9732286046,840.0,68.2,0.477,185
1216539,9732854043,567.0,68.2,0.845,169
1216660,9733822046,968.0,68.2,0.869,169
1216766,9734670046,848.0,68.1,0.841,73
1216875,9735542043,871.0,68.8,0.892,73
1216985,9736422046,880.0,68.8,0.874,73
1217090,9737262043,839.0,68.8,0.865,73
1217199,9738134044,872.0,68.8,0.873,73
1217303,9738966044,832.0,71.4,0.852,73
1217416,9739870043,903.0,68.8,0.875,73
1217526,9740750043,880.0,68.8,0.865,73
1217632,9741598043,848.0,68.8,0.862,73
1217738,9742446043,848.0,68.8,0.883,73
1217838,9743246043,800.0,70.8,0.838,73
1217933,9744006043,760.0,70.8,0.815,73
1218033,9744806043,800.0,70.8,0.819,73
1218182,9745998043,1192.0,70.8,0.436,185
1218267,9746678043,680.0,70.8,0.513,169
1218369,9747494046,816.0,70.8,0.528,169
1218475,9748342046,848.0,70.8,0.539,169
1218576,9749150045,807.0,70.8,0.531,169
1218682,9749998046,848.0,70.8,0.525,169
1218789,9750854043,855.0,70.8,0.529,169
1218905,9751782043,928.0,70.8,0.455,185
1218963,9752246044,464.0,70.8,0.819,169
1219076,9753150043,903.0,71.9,0.84,73
1219184,9754014043,864.0,70.8,0.859,73
1219295,9754902046,888.0,70.8,0.877,73
1219400,9755742043,839.0,71.4,0.856,73
1219505,9756582045,840.0,71.4,0.873,73
1219611,9757430043,847.0,71.4,0.857,73
1219718,9758286043,856.0,71.4,0.872,73
1219828,9759166043,880.0,70.8,0.872,73
1219936,9760030046,864.0,70.1,0.865,73
1220041,9760870043,839.0,70.1,0.86,73
1220146,9761710044,840.0,70.8,0.871,73
1220254,9762574043,863.0,70.8,0.878,73
1220357,9763398047,824.0,70.8,0.856,73
1220463,9764246043,847.0,70.8,0.86,73
1220572,9765118043,872.0,70.1,0.86,73
1220680,9765982046,864.0,69.4,0.87,73
1220793,9766886047,904.0,69.4,0.869,73
1220902,9767758043,871.0,69.4,0.861,73
1221005,9768582047,824.0,69.4,0.855,73
1221108,9769406045,823.0,69.4,0.862,73
1221206,9770190043,783.0,70.8,0.832,73
1221300,9770942043,752.0,70.8,0.8,73
1221662,9773838043,0.0,0.0,0.822,75
1221756,9774590043,752.0,79.8,0.876,73
1221853,9775366047,776.0,78.5,0.869,73
1221945,9776102043,735.0,79.8,0.848,73
1222045,9776902043,800.0,78.5,0.868,73
1222150,9777742044,840.0,77.3,0.843,73
1222268,9778686043,943.0,76.1,0.8,73
1222309,9779014043,328.0,76.1,0.472,185
1222437,9780038044,1024.0,76.1,0.483,185
1222516,9780670043,631.0,76.1,0.837,169
1222639,9781654044,984.0,76.1,0.873,169
1222749,9782534047,880.0,76.1,0.865,169
1222860,9783422047,888.0,76.0,0.874,73
1222967,9784278043,855.0,75.5,0.875,73
1223070,9785102043,824.0,75.0,0.863,73
1223171,9785910044,808.0,74.3,0.855,73
1223275,9786742043,831.0,72.8,0.855,73
1223375,9787542044,800.0,72.8,0.843,73
1223469,9788294047,752.0,72.8,0.854,73
1223561,9789030044,735.0,74.3,0.846,73
1223651,9789750043,719.0,75.0,0.833,73
1223792,9790878043,1128.0,75.0,0.437,185
1223870,9791502043,624.0,75.0,0.532,169
1224015,9792662043,1160.0,75.0,0.746,169
1224112,9793438043,776.0,75.0,0.795,169
1224152,9793758046,320.0,75.0,0.514,169
1224733,9798406043,0.0,0.0,0.801,75
1224861,9799430047,1024.0,58.6,0.854,73
1224976,9800350043,919.0,61.7,0.85,73
1225080,9801182047,832.0,65.2,0.838,73
1225226,9802350045,1167.0,65.2,0.523,169
1225339,9803254043,903.0,65.2,0.479,185
1225440,9804062043,808.0,65.2,0.51,169
1225550,9804942045,880.0,65.2,0.501,169
1225674,9805934046,992.0,65.2,0.479,185
1225846,9807310046,1376.0,65.2,0.794,169
1225890,9807662046,352.0,65.2,0.499,185
1226014,9808654045,991.0,65.2,0.506,169
1226145,9809702043,1047.0,65.2,0.461,185
1226210,9810222045,520.0,65.2,0.819,169
1226326,9811150045,928.0,65.7,0.847,73
1226445,9812102043,951.0,65.2,0.879,73
1226558,9813006043,904.0,65.7,0.879,73
1226674,9813934043,928.0,65.2,0.883,73
1226790,9814862043,928.0,64.9,0.888,73
1226903,9815766043,904.0,65.2,0.882,73
1227025,9816742043,976.0,65.2,0.88,73
1227150,9817742044,1000.0,64.7,0.867,73
1227265,9818662046,920.0,64.7,0.851,73
1227382,9819598044,935.0,64.7,0.867,73
1227498,9820526043,927.0,64.7,0.867,73
1227619,9821494047,968.0,64.7,0.87,73
1227741,9822470045,975.0,64.1,0.865,73
1227853,9823366043,895.0,64.1,0.867,73
1227962,9824238043,872.0,64.1,0.879,73
1228060,9825022043,784.0,64.7,0.841,73
1228163,9825846043,824.0,65.2,0.834,73
1228311,9827030043,1184.0,65.2,0.486,185
1228410,9827822045,792.0,65.2,0.501,169
1228520,9828702046,880.0,65.2,0.511,169
1228674,9829934047,1232.0,65.2,0.789,169
1228764,9830654045,719.0,65.2,0.841,169
1228852,9831358043,703.0,65.3,0.852,73
1228961,9832230043,872.0,67.0,0.875,73
1229072,9833118045,888.0,67.6,0.858,73
1229179,9833974043,855.0,68.8,0.862,73
1229294,9834894043,920.0,68.8,0.882,73
1229412,9835838043,944.0,68.8,0.879,73
1229519,9836694043,856.0,68.8,0.864,73
1229623,9837526043,832.0,68.8,0.873,73
1229739,9838454047,928.0,67.6,0.877,73
1229862,9839438043,983.0,67.6,0.864,73
1229984,9840414043,976.0,65.2,0.845,73
1230087,9841238047,824.0,65.2,0.823,73
1230187,9842038047,800.0,65.2,0.866,73
1230287,9842838045,799.0,70.1,0.827,73
1230387,9843638043,799.0,72.1,0.84,73
1230492,9844478043,840.0,72.1,0.843,73
1230612,9845438043,960.0,71.4,0.882,73
1230757,9846598046,1160.0,71.4,0.825,169
1230804,9846974043,375.0,71.4,0.476,185
1230903,9847766043,792.0,71.4,0.818,169
1231043,9848886043,1120.0,71.4,0.86,169
1231168,9849886043,1000.0,71.4,0.805,169
1231286,9850830046,944.0,71.4,0.811,73
1231400,9851742043,911.0,71.4,0.892,73
1231515,9852662046,920.0,71.4,0.874,73
1231634,9853614043,951.0,66.7,0.838,73
1231750,9854542044,928.0,65.8,0.832,73
1231875,9855542047,1000.0,65.2,0.83,73
1231990,9856462044,919.0,65.2,0.82,73
1232107,9857398047,936.0,64.7,0.834,73
1232227,9858358046,959.0,64.7,0.836,73
1232347,9859318046,960.0,64.1,0.794,73
1232457,9860198047,880.0,64.1,0.84,73
1232569,9861094043,895.0,64.1,0.856,73
1232674,9861934044,840.0,64.7,0.853,73
1232779,9862774045,840.0,65.2,0.872,73
1232892,9863678047,904.0,66.4,0.875,73
1233002,9864558046,879.0,67.0,0.872,73
1233114,9865454045,895.0,67.0,0.87,73
1233221,9866310043,855.0,68.2,0.864,73
1233324,9867134046,824.0,68.2,0.855,73
1233428,9867966043,831.0,70.1,0.846,73
1233529,9868774043,808.0,71.4,0.836,73
1233630,9869582045,808.0,71.4,0.823,73
1233774,9870734043,1151.0,71.4,0.437,185
1233858,9871406044,672.0,71.4,0.509,169
1233955,9872182043,775.0,71.4,0.516,169
1234060,9873022044,840.0,71.4,0.494,185
1234169,9873894045,872.0,71.4,0.484,185
1234280,9874782043,887.0,71.4,0.497,185
1234354,9875374045,592.0,71.4,0.849,169
1234480,9876382045,1008.0,70.6,0.877,73
1234601,9877350047,968.0,70.6,0.845,73
1234710,9878222043,871.0,70.6,0.874,73
1234817,9879078045,856.0,70.6,0.878,73
1234920,9879902046,824.0,72.1,0.867,73
1235025,9880742045,839.0,71.4,0.87,73
1235131,9881590043,847.0,70.8,0.868,73
1235238,9882446046,856.0,70.6,0.86,73
1235340,9883262043,815.0,70.6,0.845,73
1235448,9884126047,864.0,70.1,0.867,73
1235562,9885038043,911.0,70.1,0.878,73
1235686,9886030043,992.0,70.1,0.853,73
1235809,9887014044,984.0,70.1,0.8,73
1235923,9887926044,912.0,69.4,0.807,73
1236037,9888838044,912.0,65.8,0.81,73
1236153,9889766043,927.0,65.8,0.808,73
1236264,9890654046,888.0,65.8,0.791,73
1236371,9891510044,855.0,65.8,0.832,73
1236481,9892390046,880.0,65.8,0.851,73
1236586,9893230043,839.0,65.8,0.841,73
1236693,9894086043,856.0,67.6,0.869,73
1236801,9894950044,864.0,68.2,0.868,73
1236903,9895766043,815.0,69.4,0.853,73
1237004,9896574043,808.0,70.1,0.855,73
1237110,9897422046,848.0,70.1,0.86,73
1237216,9898270043,847.0,70.8,0.857,73
1237322,9899118047,848.0,70.8,0.85,73
1237427,9899958043,839.0,70.8,0.85,73
1237536,9900830047,872.0,70.8,0.866,73
1237647,9901718043,887.0,70.8,0.873,73
1237766,9902670047,952.0,70.8,0.849,73
1237875,9903542045,871.0,70.8,0.848,73
1237987,9904438046,896.0,68.8,0.863,73
1238095,9905302047,864.0,68.8,0.847,73
1238198,9906126043,823.0,68.8,0.863,73
1238301,9906950043,824.0,68.8,0.864,73
1238404,9907774043,824.0,68.8,0.856,73
1238500,9908542043,768.0,69.4,0.814,73
1238592,9909278043,736.0,72.8,0.813,73
1238697,9910118043,840.0,72.8,0.836,73
1238799,9910934043,816.0,72.8,0.831,73
1238932,9911998047,1064.0,72.8,0.518,169
1239022,9912718044,719.0,72.8,0.528,169
1239162,9913838043,1119.0,72.8,0.792,169
1239263,9914646043,808.0,72.8,0.786,169
1239364,9915454043,808.0,72.8,0.793,169
1239475,9916342043,888.0,72.8,0.78,73
1239584,9917214047,872.0,72.8,0.844,73
1239697,9918118043,903.0,72.8,0.865,73
1239814,9919054043,936.0,72.8,0.829,73
1239920,9919902045,848.0,71.4,0.823,73
1240026,9920750043,847.0,70.8,0.845,73
1240127,9921558043,808.0,70.8,0.831,73
1240222,9922318043,760.0,70.8,0.852,73
1240321,9923110043,792.0,70.8,0.878,73
1240430,9923982043,872.0,70.8,0.872,73
1240544,9924894043,912.0,70.8,0.862,73
1240651,9925750046,856.0,70.8,0.849,73
1240758,9926606043,855.0,70.8,0.875,73
1240867,9927478044,872.0,70.1,0.868,73
1240970,9928302046,824.0,70.1,0.854,73
1241069,9929094043,791.0,70.1,0.854,73
1241173,9929926043,832.0,70.1,0.869,73
1241276,9930750046,824.0,70.1,0.859,73
1241373,9931526043,775.0,72.1,0.822,73
1241467,9932278047,752.0,72.8,0.82,73
1241638,9933646046,1367.0,72.8,0.783,169
1241684,9934014045,367.0,72.8,0.501,169
1241840,9935262043,1247.0,72.8,0.796,169
1241876,9935550043,288.0,72.8,0.528,173
1242235,9938422044,0.0,0.0,0.8,75
1242327,9939158044,736.0,81.5,0.819,73
1242417,9939878043,719.0,82.4,0.876,73
1242505,9940582043,704.0,83.3,0.836,73
1242590,9941262043,680.0,84.3,0.83,73
1242673,9941926043,664.0,85.2,0.852,73
1242754,9942574043,648.0,86.7,0.85,73
1242883,9943606043,1032.0,86.7,0.446,185
1242954,9944174043,568.0,86.7,0.446,185
1243058,9945006043,832.0,86.7,0.72,169
1243128,9945566047,560.0,86.7,0.782,169
1243198,9946126043,559.0,86.7,0.874,169
1243268,9946686043,560.0,86.7,0.852,169
1243404,9947774045,1088.0,88.2,0.783,73
1243471,9948310047,536.0,89.3,0.817,73
1243603,9949366043,1055.0,89.3,0.753,169
1243668,9949886043,520.0,89.3,0.822,169
1243732,9950398043,512.0,89.3,0.835,169
1243862,9951438046,1040.0,89.3,0.778,169
1243930,9951982047,544.0,89.3,0.808,169
1243997,9952518043,535.0,89.3,0.837,169
1244063,9953046047,528.0,89.3,0.835,169
1244205,9954182046,1135.0,90.4,0.79,73
1244280,9954782045,599.0,92.0,0.857,73
1244352,9955358044,575.0,92.3,0.817,73
1244426,9955950043,591.0,92.6,0.804,73
1244537,9956838044,888.0,92.6,0.464,185
1244621,9957510045,672.0,92.6,0.439,185
1244718,9958286043,775.0,92.6,0.763,169
1244790,9958862043,576.0,92.6,0.802,169
1244863,9959446046,584.0,92.6,0.808,169
1244936,9960030043,583.0,92.6,0.838,169
1245008,9960606046,576.0,92.6,0.857,169
1245079,9961174047,568.0,92.6,0.866,73
1245153,9961766043,591.0,100.0,0.883,73
1245233,9962406043,640.0,100.0,0.877,73
1245319,9963094043,688.0,100.0,0.852,73
1245406,9963790043,696.0,93.8,0.824,73
1245490,9964462043,672.0,93.8,0.809,73
1245579,9965174043,712.0,91.9,0.821,73
1245664,9965854045,680.0,89.3,0.797,73
1245747,9966518043,663.0,89.3,0.801,73
1245829,9967174043,656.0,89.3,0.821,73
1245914,9967854043,680.0,88.2,0.835,73
1245996,9968510043,656.0,88.2,0.826,73
1246076,9969150043,640.0,89.3,0.841,73
1246158,9969806043,656.0,90.4,0.866,73
1246244,9970494043,688.0,90.4,0.854,73
1246332,9971198046,704.0,90.4,0.839,73
1246421,9971910046,712.0,90.4,0.81,73
1246506,9972590043,679.0,88.2,0.804,73
1246587,9973238043,648.0,88.2,0.838,73
1246673,9973926045,688.0,88.2,0.861,73
1246761,9974630044,703.0,87.2,0.843,73
1246854,9975374044,744.0,87.2,0.813,73
1246944,9976094045,720.0,85.2,0.794,73
1247033,9976806043,711.0,85.2,0.825,73
1247123,9977526043,720.0,84.3,0.822,73
1247212,9978238044,712.0,84.3,0.817,73
1247303,9978966043,727.0,84.3,0.805,73
1247390,9979662043,696.0,84.3,0.806,73
1247473,9980326043,664.0,84.3,0.843,73
1247555,9980982043,656.0,84.3,0.874,73
1247633,9981606043,624.0,84.3,0.88,73
1247708,9982206043,600.0,86.2,0.84,73
1247822,9983118043,912.0,86.2,0.479,185
1247891,9983670043,552.0,86.2,0.521,169
1248007,9984598046,928.0,86.2,0.824,169
1248676,9989950043,0.0,0.0,0.79,75
1248782,9990798043,848.0,70.8,0.851,73
1248887,9991638043,840.0,71.1,0.862,73
1248993,9992486045,848.0,70.8,0.864,73
1249097,9993318043,831.0,71.1,0.857,73
1249196,9994110043,792.0,71.4,0.838,73
1249289,9994854043,744.0,71.8,0.835,73
1249381,9995590043,736.0,72.1,0.83,73
1249483,9996406045,816.0,72.8,0.845,73
1249597,9997318043,911.0,72.1,0.864,73
1249719,9998294043,976.0,72.1,0.881,73
1249825,9999142043,848.0,72.1,0.874,73
1249932,9999998043,856.0,72.1,0.878,73
1250034,10000814043,816.0,73.5,0.854,73
1250132,10001598043,784.0,73.5,0.861,73
1250232,10002398043,800.0,73.5,0.862,73
1250333,10003206045,808.0,73.5,0.871,73
1250435,10004022043,815.0,73.5,0.858,73
1250533,10004806047,784.0,73.5,0.837,73
1250627,10005558043,751.0,74.3,0.851,73
1250724,10006334045,776.0,75.0,0.857,73
1250821,10007110043,775.0,76.5,0.857,73
1250922,10007918045,808.0,76.5,0.854,73
1251015,10008662044,743.0,76.5,0.829,73
1251112,10009438045,776.0,77.3,0.854,73
1251211,10010230043,791.0,77.3,0.857,73
1251306,10010990046,760.0,77.3,0.848,73
1251399,10011734046,744.0,77.3,0.831,73
1251492,10012478047,744.0,77.3,0.832,73
1251582,10013198048,720.0,78.9,0.839,73
1251717,10014278044,1079.0,78.9,0.447,185
1251761,10014630043,351.0,78.9,0.552,185
1251906,10015790043,1160.0,78.9,0.454,185
1251958,10016206046,416.0,78.9,0.842,169
1252062,10017038045,831.0,78.9,0.855,169
1252163,10017846043,807.0,78.9,0.843,169
1252263,10018646044,800.0,78.9,0.855,73
1252362,10019438043,791.0,78.9,0.858,73
1252459,10020214047,776.0,77.3,0.859,73
1252555,10020982043,767.0,78.1,0.868,73
1252654,10021774044,792.0,78.1,0.878,73
1252754,10022574043,799.0,77.3,0.862,73
1252854,10023374043,800.0,77.1,0.854,73
1252950,10024142043,768.0,77.1,0.837,73
1253041,10024870045,728.0,77.1,0.862,73
1253136,10025630043,759.0,77.3,0.876,73
1253235,10026422043,792.0,77.3,0.867,73
1253332,10027198046,776.0,77.3,0.861,73
1253424,10027934046,736.0,77.3,0.856,73
1253517,10028678043,743.0,78.1,0.872,73
1253623,10029526043,848.0,78.1,0.879,73
1253736,10030430043,904.0,78.1,0.844,73
1253842,10031278043,848.0,77.3,0.823,73
1253943,10032086047,808.0,75.8,0.814,73
1254045,10032902045,815.0,74.3,0.817,73
1254145,10033702047,800.0,74.3,0.823,73
1254243,10034486043,783.0,74.3,0.82,73
1254332,10035198043,712.0,74.3,0.84,73
1254418,10035886043,688.0,74.3,0.871,73
1254504,10036574043,688.0,75.0,0.846,73
1254632,10037598045,1024.0,75.0,0.478,185
1254755,10038582047,984.0,75.0,0.811,169
1254837,10039238047,656.0,75.0,0.841,169
1254921,10039910047,672.0,75.0,0.874,169
1255006,10040590046,679.0,75.0,0.866,169
1255092,10041278046,688.0,75.0,0.861,169
1255183,10042006047,728.0,76.5,0.841,73
1255276,10042750043,743.0,77.3,0.863,73
1255369,10043494047,744.0,80.6,0.833,73
1255463,10044246045,751.0,80.6,0.84,73
1255559,10045014043,767.0,80.6,0.847,73
1255653,10045766047,752.0,80.6,0.843,73
1255738,10046446045,679.0,80.6,0.849,73
1255822,10047118044,671.0,80.6,0.845,73
1255908,10047806046,688.0,80.6,0.836,73
1256038,10048846043,1039.0,80.6,0.443,185
1256126,10049550043,704.0,80.6,0.453,185
1256242,10050478043,928.0,80.6,0.803,169
1256332,10051198043,720.0,80.6,0.803,169
1256426,10051950043,752.0,80.6,0.796,169
1256522,10052718043,768.0,80.6,0.772,169
1256620,10053502043,784.0,80.6,0.759,185
1256718,10054286043,784.0,80.6,0.309,185
1256818,10055086045,800.0,80.6,0.812,169
1256914,10055854043,767.0,80.6,0.826,73
1257006,10056590046,736.0,81.5,0.867,73
1257098,10057326046,736.0,81.5,0.882,73
1257192,10058078043,751.0,81.5,0.876,73
1257286,10058830043,752.0,81.5,0.861,73
1257378,10059566043,736.0,81.5,0.87,73
1257475,10060342047,776.0,81.5,0.871,73
1257574,10061134043,791.0,81.5,0.862,73
1257679,10061974047,840.0,79.8,0.824,73
1257783,10062806043,831.0,79.8,0.798,73
1257883,10063606046,800.0,77.3,0.795,73
1257984,10064414043,807.0,75.8,0.797,73
1258083,10065206043,792.0,75.8,0.797,73
1258180,10065982045,776.0,75.8,0.811,73
1258281,10066790043,807.0,75.0,0.815,73
1258386,10067630043,840.0,74.3,0.795,73
1258487,10068438043,808.0,74.3,0.806,73
1258592,10069278043,840.0,74.3,0.787,73
1258692,10070078044,800.0,74.3,0.793,73
1258790,10070862043,783.0,74.3,0.816,73
1258889,10071654043,792.0,75.0,0.827,73
1258989,10072454045,800.0,75.0,0.824,73
1259087,10073238043,783.0,75.0,0.825,73
1259186,10074030047,792.0,75.0,0.846,73
1259290,10074862043,831.0,75.0,0.834,73
1259395,10075702044,840.0,75.0,0.805,73
1259500,10076542048,840.0,75.0,0.812,73
1259607,10077398044,855.0,75.0,0.798,73
1259715,10078262043,863.0,75.0,0.792,169
1259816,10079070043,808.0,75.0,0.779,169
1259914,10079854043,784.0,75.0,0.81,169
1260010,10080622047,768.0,75.0,0.82,169
1260107,10081398043,775.0,75.0,0.819,169
1260204,10082174043,776.0,75.0,0.81,169
1260299,10082934044,760.0,75.0,0.839,73
1260395,10083702043,767.0,75.0,0.886,73
1260495,10084502043,800.0,75.0,0.881,73
1260601,10085350043,848.0,72.1,0.862,73
1260704,10086174043,824.0,72.1,0.856,73
1260805,10086982043,808.0,72.8,0.867,73
1260909,10087814047,832.0,72.8,0.872,73
1261011,10088630043,815.0,73.5,0.854,73
1261112,10089438047,808.0,74.3,0.868,73
1261215,10090262043,823.0,73.5,0.864,73
1261317,10091078043,816.0,73.5,0.853,73
1261414,10091854043,776.0,73.5,0.849,73
1261511,10092630043,776.0,73.5,0.865,73
1261610,10093422047,792.0,74.3,0.866,73
1261709,10094214043,791.0,74.3,0.854,73
1261804,10094974043,760.0,75.8,0.826,73
1261899,10095734043,760.0,75.8,0.855,73
1261994,10096494043,760.0,77.3,0.847,73
1262090,10097262047,768.0,77.3,0.84,73
1262184,10098014046,751.0,78.1,0.83,73
1262279,10098774047,760.0,78.9,0.851,73
1262377,10099558047,784.0,78.9,0.861,73
1262477,10100358043,799.0,78.9,0.862,73
1262574,10101134043,776.0,78.9,0.846,73
1262667,10101878047,744.0,78.9,0.851,73
1262762,10102638045,759.0,78.9,0.875,73
1262857,10103398046,760.0,78.9,0.863,73
1262954,10104174047,776.0,78.9,0.871,73
1263046,10104910043,735.0,78.9,0.824,73
1263132,10105598047,688.0,78.9,0.837,73
1263222,10106318047,720.0,78.9,0.844,73
1263312,10107038043,719.0,80.6,0.836,73
1263402,10107758047,720.0,81.5,0.849,73
1263495,10108502043,743.0,81.5,0.852,73
1263587,10109238047,736.0,81.5,0.826,73
1263677,10109958043,719.0,83.3,0.831,73
1263766,10110670047,712.0,83.3,0.828,73
1263855,10111382047,712.0,83.3,0.832,73
1263941,10112070047,688.0,83.3,0.829,73
1264031,10112790045,719.0,83.3,0.858,73
1264123,10113526047,736.0,83.3,0.859,73
1264216,10114270045,743.0,83.3,0.855,73
1264311,10115030047,760.0,83.3,0.856,73
1264403,10115766043,735.0,83.3,0.87,73
1264493,10116486047,720.0,83.3,0.876,73
1264580,10117182047,696.0,83.3,0.861,73
1264664,10117854043,671.0,83.3,0.867,73
1264749,10118534047,680.0,83.3,0.881,73
1264838,10119246047,712.0,83.3,0.869,73
1264931,10119990043,743.0,83.3,0.872,73
1265026,10120750043,760.0,83.3,0.87,73
1265127,10121558047,808.0,83.3,0.854,73
1265225,10122342047,784.0,83.3,0.827,73
1265321,10123110047,768.0,80.6,0.845,73
1265416,10123870045,759.0,78.9,0.849,73
1265509,10124614047,744.0,78.9,0.84,73
1265593,10125286047,672.0,78.9,0.847,73
1265671,10125910045,623.0,78.9,0.838,73
1265819,10127094047,1184.0,78.9,0.805,169
1265898,10127726045,631.0,78.9,0.85,169
1266279,10130774045,0.0,0.0,0.789,75
1266381,10131590043,815.0,73.5,0.84,73
1266481,10132390044,800.0,74.3,0.833,73
1266578,10133166043,775.0,75.0,0.843,73
1266674,10133934046,768.0,76.1,0.855,73
1266768,10134686047,752.0,77.3,0.847,73
1266858,10135406043,719.0,77.7,0.853,73
1266952,10136158047,752.0,78.1,0.859,73
1267045,10136902047,744.0,78.9,0.844,73
1267134,10137614044,711.0,79.8,0.812,73
1267222,10138318043,703.0,79.8,0.569,185
1267396,10139710043,1392.0,79.8,0.779,185
1267480,10140382043,672.0,79.8,0.795,169
1267564,10141054045,672.0,79.8,0.808,169
1267648,10141726043,671.0,79.8,0.819,169
1267728,10142366043,640.0,79.8,0.841,73
1267809,10143014043,648.0,79.8,0.878,73
1267897,10143718045,704.0,80.6,0.875,73
1267990,10144462043,743.0,80.6,0.871,73
1268087,10145238043,776.0,80.6,0.863,73
1268189,10146054043,816.0,80.6,0.855,73
1268293,10146886043,832.0,80.6,0.839,73
1268394,10147694046,808.0,77.3,0.823,73
1268493,10148486046,792.0,75.8,0.826,73
1268586,10149230047,744.0,77.3,0.852,73
1268679,10149974043,743.0,77.3,0.872,73
1268773,10150726045,752.0,77.3,0.875,73
1268868,10151486047,760.0,77.3,0.874,73
1268962,10152238047,752.0,78.9,0.865,73
1269057,10152998047,760.0,78.9,0.862,73
1269146,10153710047,712.0,79.8,0.853,73
1269235,10154422043,711.0,79.8,0.856,73
1269326,10155150043,728.0,80.6,0.87,73
1269419,10155894046,744.0,80.6,0.876,73
1269515,10156662046,768.0,79.8,0.877,73
1269618,10157486046,824.0,79.8,0.869,73
1269726,10158350047,864.0,79.8,0.843,73
1269839,10159254043,903.0,78.9,0.812,73
1269949,10160134043,880.0,78.9,0.785,169
1270051,10160950043,816.0,78.9,0.787,169
1270103,10161366043,416.0,78.9,0.501,169
1270205,10162182046,816.0,78.9,0.498,185
1270303,10162966046,784.0,78.9,0.494,185
1270402,10163758045,791.0,78.9,0.496,185
1270508,10164606043,847.0,78.9,0.488,185
1270614,10165454043,848.0,78.9,0.466,185
1270664,10165854043,400.0,78.9,0.553,185
1270807,10166998043,1144.0,78.9,0.473,185
1270942,10168078043,1080.0,78.9,0.781,169
1271025,10168742046,664.0,78.1,0.809,73
1271103,10169366046,624.0,78.1,0.844,73
1271218,10170286043,919.0,78.1,0.535,169
1271335,10171222046,936.0,78.1,0.799,169
1271414,10171854045,631.0,78.1,0.869,169
1271499,10172534047,680.0,78.1,0.869,169
1271585,10173222047,688.0,78.1,0.866,169
1271678,10173966043,743.0,78.1,0.86,169
1271773,10174726043,760.0,78.1,0.847,73
1271870,10175502043,776.0,77.3,0.853,73
1271964,10176254047,752.0,77.3,0.832,73
1272053,10176966047,712.0,77.3,0.829,73
1272138,10177646047,680.0,78.3,0.824,73
1272266,10178670043,1023.0,78.3,0.474,185
1272358,10179406043,736.0,78.3,0.474,185
1272492,10180478043,1072.0,78.3,0.762,185
1272578,10181166047,688.0,78.3,0.78,169
1272668,10181886046,719.0,78.3,0.797,169
1272762,10182638043,751.0,78.3,0.789,169
1272855,10183382043,744.0,79.8,0.78,73
1272948,10184126046,744.0,80.6,0.858,73
1273043,10184886043,759.0,80.6,0.868,73
1273134,10185614045,728.0,80.6,0.87,73
1273222,10186318046,704.0,82.4,0.851,73
1273304,10186974046,656.0,83.7,0.836,73
1273385,10187622043,647.0,84.3,0.838,73
1273539,10188854043,1232.0,84.3,0.777,169
1273614,10189454046,600.0,84.3,0.786,169
1273689,10190054043,599.0,84.3,0.805,169
1273763,10190646044,592.0,84.3,0.851,169
1273838,10191246047,600.0,84.3,0.855,169
1273919,10191894046,647.0,84.3,0.866,169
1274002,10192558045,663.0,84.3,0.845,169
1274089,10193254043,695.0,85.2,0.857,73
1274178,10193966045,712.0,84.3,0.873,73
1274266,10194670043,703.0,85.2,0.887,73
1274355,10195382043,712.0,85.2,0.865,73
1274444,10196094047,712.0,85.2,0.862,73
1274528,10196766043,671.0,85.2,0.841,73
1274617,10197478047,712.0,85.2,0.868,73
1274709,10198214043,735.0,84.3,0.856,73
1274795,10198902043,688.0,84.3,0.859,73
1274878,10199566043,664.0,84.3,0.881,73
1274965,10200262043,696.0,85.2,0.877,73
1275055,10200982043,720.0,84.3,0.881,73
1275140,10201662045,680.0,86.2,0.868,73
1275229,10202374043,711.0,86.2,0.878,73
1275320,10203102043,728.0,84.3,0.867,73
1275416,10203870045,768.0,84.3,0.86,73
1275508,10204606043,735.0,84.3,0.843,73
1275603,10205366043,760.0,83.3,0.852,73
1275699,10206134043,768.0,82.4,0.836,73
1275795,10206902044,768.0,81.5,0.827,73
1275893,10207686043,783.0,78.9,0.825,73
1275995,10208502043,816.0,78.1,0.808,73
1276099,10209334043,832.0,78.1,0.78,73
1276200,10210142047,808.0,78.1,0.779,169
1276304,10210974044,831.0,78.1,0.785,169
1276352,10211358043,383.0,78.1,0.494,185
1276464,10212254044,896.0,78.1,0.488,185
1276531,10212790043,535.0,78.1,0.838,169
1276635,10213622043,832.0,78.1,0.858,169
1276738,10214446046,824.0,78.1,0.876,73
1276842,10215278045,831.0,78.1,0.867,73
1276947,10216118043,839.0,76.5,0.843,73
1277048,10216926043,808.0,74.3,0.823,73
1277148,10217726043,800.0,74.3,0.856,73
1277248,10218526047,800.0,74.3,0.862,73
1277348,10219326044,799.0,74.3,0.866,73
1277445,10220102043,775.0,75.0,0.841,73
1277538,10220846045,744.0,75.0,0.856,73
1277625,10221542043,695.0,75.0,0.837,73
1277797,10222918043,1376.0,75.0,0.779,185
1277881,10223590043,672.0,75.0,0.782,169
1277962,10224238047,648.0,75.0,0.821,169
1278046,10224910046,671.0,75.0,0.871,169
1278136,10225630045,719.0,75.0,0.884,169
1278229,10226374047,744.0,75.0,0.871,169
1278324,10227134045,759.0,75.0,0.869,73
1278426,10227950047,816.0,75.0,0.87,73
1278529,10228774043,823.0,75.0,0.853,73
1278627,10229558043,784.0,75.1,0.853,73
1278722,10230318043,760.0,76.5,0.855,73
1278819,10231094043,776.0,77.3,0.868,73
1278917,10231878043,784.0,76.5,0.865,73
1279008,10232606043,728.0,76.5,0.844,73
1279098,10233326047,720.0,76.5,0.854,73
1279193,10234086044,759.0,77.3,0.856,73
1279292,10234878047,792.0,77.3,0.858,73
1279394,10235694043,815.0,77.3,0.853,73
1279494,10236494043,800.0,77.3,0.857,73
1279597,10237318043,824.0,76.5,0.858,73
1279700,10238142043,824.0,75.8,0.849,73
1279800,10238942047,800.0,75.0,0.853,73
1279899,10239734043,791.0,75.0,0.852,73
1279998,10240526043,792.0,75.0,0.862,73
1280097,10241318043,792.0,75.0,0.865,73
1280199,10242134043,816.0,75.0,0.858,73
1280298,10242926046,792.0,75.0,0.845,73
1280394,10243694043,767.0,75.8,0.865,73
1280494,10244494043,800.0,75.8,0.871,73
1280594,10245294047,800.0,75.8,0.867,73
1280690,10246062043,767.0,75.8,0.86,73
1280788,10246846043,784.0,75.8,0.866,73
1280888,10247646043,800.0,75.8,0.878,73
1280994,10248494043,848.0,75.0,0.858,73
1281100,10249342043,848.0,75.0,0.851,73
1281205,10250182043,840.0,75.0,0.851,73
1281310,10251022046,840.0,75.0,0.859,73
1281418,10251886043,863.0,71.4,0.832,73
1281519,10252694047,808.0,71.4,0.829,73
1281617,10253478045,783.0,71.4,0.852,73
1281711,10254230043,751.0,71.4,0.849,73
1281797,10254918045,688.0,71.4,0.842,73
1281930,10255982046,1064.0,71.4,0.487,185
1282018,10256686043,703.0,71.4,0.506,169
1282159,10257814045,1128.0,71.4,0.806,169
1282259,10258614046,800.0,71.4,0.804,169
1282359,10259414047,800.0,71.4,0.802,169
1282461,10260230045,815.0,74.3,0.799,73
1282564,10261054043,823.0,74.3,0.857,73
1282665,10261862047,808.0,74.3,0.848,73
1282767,10262678043,815.0,74.3,0.856,73
1282871,10263510043,832.0,74.3,0.864,73
1282976,10264350047,840.0,74.3,0.85,73
1283078,10265166047,816.0,73.5,0.861,73
1283183,10266006046,839.0,73.5,0.861,73
1283284,10266814045,807.0,73.5,0.848,73
1283383,10267606043,791.0,73.5,0.863,73
1283485,10268422047,816.0,73.5,0.858,73
1283587,10269238043,815.0,73.5,0.852,73
1283688,10270046046,808.0,73.5,0.853,73
1283789,10270854043,807.0,73.5,0.86,73
1283891,10271670043,816.0,73.5,0.869,73
1283994,10272494043,824.0,73.5,0.864,73
1284096,10273310047,816.0,73.5,0.844,73
1284194,10274094043,783.0,73.5,0.86,73
1284293,10274886047,792.0,73.5,0.867,73
1284394,10275694046,807.0,74.3,0.864,73
1284493,10276486047,792.0,74.3,0.845,73
1284591,10277270043,783.0,74.3,0.857,73
1284687,10278038043,768.0,75.8,0.853,73
1284784,10278814046,776.0,75.8,0.854,73
1284880,10279582043,767.0,76.5,0.841,73
1284974,10280334045,752.0,76.5,0.848,73
1285068,10281086045,752.0,77.3,0.837,73
1285158,10281806043,719.0,78.1,0.822,73
1285317,10283078043,1272.0,78.1,0.764,169
1285394,10283694046,616.0,78.1,0.831,169
1285490,10284462047,768.0,78.1,0.857,169
1285977,10288358043,0.0,0.0,0.802,75
1286070,10289102043,744.0,80.6,0.865,73
1286159,10289814044,712.0,82.4,0.852,73
1286246,10290510043,695.0,84.3,0.866,73
1286334,10291214043,704.0,84.7,0.879,73
1286614,10293454047,0.0,0.0,0.799,75
1286709,10294214043,759.0,78.9,0.857,73
1286802,10294958043,744.0,79.8,0.864,73
1286896,10295710043,752.0,79.8,0.869,73
1286984,10296414043,704.0,80.2,0.852,73
1287069,10297094046,680.0,80.6,0.861,73
1287159,10297814043,719.0,82.0,0.863,73
1287253,10298566043,752.0,80.6,0.86,73
1287345,10299302044,736.0,81.1,0.843,73
1287437,10300038047,736.0,81.5,0.87,73
1287533,10300806043,767.0,81.5,0.871,73
1287629,10301574043,768.0,81.5,0.873,73
1287729,10302374043,800.0,81.5,0.864,73
1287829,10303174043,800.0,79.8,0.844,73
1287931,10303990043,816.0,78.1,0.824,73
1288031,10304790043,800.0,78.1,0.813,73
1288128,10305566043,776.0,77.3,0.819,73
1288224,10306334046,768.0,77.3,0.838,73
1288317,10307078043,743.0,77.3,0.86,73
1288402,10307758043,680.0,77.3,0.876,73
1288485,10308422047,664.0,77.3,0.861,73
1288569,10309094047,672.0,78.1,0.84,73
1288658,10309806043,711.0,80.6,0.833,73
1288750,10310542044,736.0,81.5,0.82,73
1288842,10311278044,736.0,81.5,0.825,73
1288935,10312022043,743.0,81.5,0.829,73
1289026,10312750043,728.0,82.4,0.836,73
1289113,10313446044,696.0,84.3,0.825,73
1289203,10314166047,720.0,83.3,0.838,73
1289298,10314926043,759.0,82.4,0.86,73
1289394,10315694046,768.0,81.5,0.86,73
1289486,10316430044,735.0,81.5,0.854,73
1289575,10317142043,711.0,81.5,0.844,73
1289663,10317846045,704.0,82.4,0.854,73
1289754,10318574043,727.0,82.4,0.861,73
1289846,10319310045,736.0,82.4,0.869,73
1289940,10320062047,752.0,81.5,0.879,73
1290035,10320822043,759.0,81.5,0.872,73
1290130,10321582043,760.0,81.5,0.877,73
1290225,10322342043,760.0,81.5,0.868,73
1290318,10323086043,744.0,80.6,0.865,73
1290409,10323814043,728.0,80.6,0.861,73
1291168,10329886044,0.0,0.0,0.797,75
1291262,10330638047,752.0,79.8,0.858,73
1291354,10331374043,735.0,80.6,0.863,73
1291444,10332094044,720.0,81.5,0.857,73
1291535,10332822043,727.0,82.0,0.866,73
1291885,10335622044,0.0,0.0,0.821,75
1291973,10336326046,704.0,85.2,0.879,73
1292057,10336998044,671.0,87.2,0.871,73
1292139,10337654043,655.0,89.3,0.864,73
1292225,10338342043,688.0,88.2,0.869,73
1292316,10339070043,728.0,87.2,0.874,73
1292412,10339838045,768.0,86.2,0.848,73
1292511,10340630043,791.0,85.2,0.814,73
1292605,10341382045,752.0,83.8,0.794,73
1292699,10342134044,751.0,82.4,0.809,73
1292794,10342894043,759.0,79.8,0.806,73
1292893,10343686045,792.0,79.8,0.8,73
1292995,10344502043,815.0,79.8,0.79,169
1293038,10344846046,344.0,79.8,0.479,185
1293146,10345710046,864.0,79.8,0.475,185
1293250,10346542043,831.0,79.8,0.474,185
1293351,10347350043,808.0,79.8,0.454,185
1293403,10347766043,416.0,79.8,0.824,169
1293509,10348614043,848.0,78.9,0.853,73
1293619,10349494046,880.0,78.1,0.854,73
1293725,10350342045,847.0,75.8,0.84,73
1293832,10351198047,856.0,75.8,0.832,73
1293930,10351982043,783.0,75.8,0.807,73
1294018,10352686043,704.0,75.8,0.829,73
1294098,10353326044,640.0,75.8,0.85,73
1294180,10353982045,656.0,75.8,0.849,73
1295923,10367926043,0.0,0.0,0.795,75
1296031,10368790043,864.0,69.4,0.878,73
1296137,10369638044,848.0,70.1,0.879,73
1296247,10370518043,879.0,69.4,0.888,73
1296359,10371414043,896.0,68.8,0.876,73
1296469,10372294044,880.0,68.2,0.874,73
1296582,10373198043,903.0,68.2,0.891,73
1296703,10374166047,968.0,68.2,0.874,73
1296823,10375126043,959.0,67.6,0.853,73
1296944,10376094045,968.0,67.0,0.83,73
1297055,10376982043,887.0,67.0,0.841,73
1297165,10377862043,880.0,67.0,0.869,73
1297277,10378758043,896.0,67.0,0.862,73
1297390,10379662043,904.0,66.4,0.858,73
1297509,10380614046,952.0,66.4,0.845,73
1297627,10381558057,944.0,63.6,0.832,73
1297740,10382462043,903.0,66.4,0.867,73
1297852,10383358044,896.0,66.4,0.867,73
1297957,10384198043,839.0,67.0,0.867,73
1298057,10384998044,800.0,67.0,0.86,73
1298153,10385766043,767.0,67.0,0.845,73
1298251,10386550047,784.0,67.0,0.825,73
1298391,10387670043,1119.0,67.0,0.508,169
1298544,10388894043,1224.0,67.0,0.785,169
1298640,10389662047,768.0,67.0,0.826,169
1298941,10392070043,0.0,0.0,0.809,75
1299452,10396158045,0.0,0.0,0.787,75
1299539,10396854046,696.0,86.2,0.846,73
1299623,10397526043,671.0,87.7,0.863,73
1299710,10398222047,696.0,86.2,0.881,73
1300303,10402966045,0.0,0.0,0.828,75
1300623,10405526043,0.0,0.0,0.802,75
1300704,10406174043,648.0,92.6,0.865,73
1300782,10406798046,624.0,94.3,0.857,73
1300860,10407422043,623.0,96.2,0.868,73
1300938,10408046043,624.0,96.2,0.856,73
1301014,10408654044,608.0,96.2,0.848,73
1301090,10409262043,607.0,96.2,0.847,73
1301169,10409894043,632.0,96.2,0.845,73
1301250,10410542047,648.0,96.2,0.848,73
1301331,10411190043,647.0,96.2,0.854,73
1301409,10411814045,624.0,96.2,0.87,73
1301491,10412470043,655.0,96.2,0.882,73
1301579,10413174043,704.0,94.9,0.846,73
1301668,10413886047,712.0,92.6,0.823,73
1301753,10414566043,679.0,92.6,0.806,73
1301838,10415246043,680.0,91.5,0.812,73
1301929,10415974047,728.0,88.2,0.8,73
1301965,10416262043,287.0,88.2,0.495,189
1302068,10417086044,824.0,88.2,0.487,185
1302162,10417838045,752.0,88.2,0.516,169
1302220,10418302043,463.0,88.2,0.812,169
1302311,10419030045,728.0,88.2,0.824,169
1302396,10419710043,679.0,88.2,0.818,169
1302526,10420750043,1040.0,88.2,0.415,185
1303019,10424694045,0.0,0.0,0.807,75
1303112,10425438043,743.0,80.6,0.876,73
1303206,10426190043,752.0,80.2,0.882,73
1303303,10426966047,776.0,79.8,0.858,73
1303402,10427758043,791.0,78.5,0.859,73
1303498,10428526043,768.0,78.1,0.862,73
1303594,10429294043,768.0,78.1,0.856,73
1303690,10430062043,768.0,78.1,0.857,73
1303788,10430846043,784.0,78.1,0.843,73
1303885,10431622043,776.0,78.1,0.852,73
1303980,10432382043,760.0,78.1,0.857,73
1304072,10433118043,736.0,78.1,0.878,73
1304170,10433902044,784.0,78.1,0.88,73
1304273,10434726047,824.0,78.1,0.868,73
1304377,10435558047,832.0,77.3,0.852,73
1304485,10436422047,864.0,76.5,0.838,73
1304588,10437246044,823.0,76.5,0.813,73
1304681,10437990045,744.0,76.5,0.8,73
1304769,10438694043,703.0,76.5,0.832,73
1304858,10439406043,712.0,76.5,0.85,73
1304948,10440126046,720.0,76.5,0.874,73
1305043,10440886043,759.0,78.9,0.847,73
1305135,10441622043,736.0,80.6,0.853,73
1305225,10442342043,720.0,81.5,0.862,73
1305314,10443054043,712.0,83.3,0.857,73
1305400,10443742047,688.0,83.3,0.839,73
1305482,10444398043,655.0,84.3,0.823,73
1305603,10445366046,968.0,84.3,0.494,185
1305687,10446038043,671.0,84.3,0.523,169
1306583,10453206043,0.0,0.0,0.796,75
1306691,10454070043,864.0,69.4,0.881,73
1306798,10454926043,856.0,69.8,0.867,73
1306900,10455742043,816.0,70.1,0.855,73
1307001,10456550043,808.0,71.8,0.852,73
1307102,10457358046,808.0,73.5,0.85,73
1307202,10458158043,799.0,73.9,0.833,73
1307302,10458958045,800.0,74.3,0.852,73
1307406,10459790043,831.0,73.9,0.862,73
1307518,10460686043,896.0,73.5,0.877,73
1307633,10461606043,920.0,73.5,0.863,73
1307743,10462486047,880.0,73.5,0.851,73
1307848,10463326047,840.0,72.1,0.857,73
1307953,10464166045,839.0,71.4,0.867,73
1308058,10465006046,840.0,71.4,0.855,73
1308164,10465854043,847.0,71.4,0.849,73
1308271,10466710043,856.0,70.8,0.844,73
1308379,10467574046,864.0,70.1,0.852,73
1308487,10468438043,863.0,70.1,0.866,73
1308598,10469326047,888.0,70.1,0.865,73
1308708,10470206046,879.0,70.1,0.852,73
1308812,10471038047,832.0,70.1,0.844,73
1308911,10471830043,791.0,70.1,0.858,73
1309008,10472606043,776.0,70.1,0.871,73
1309110,10473422043,816.0,70.1,0.865,73
1309216,10474270043,848.0,70.8,0.857,73
1309324,10475134047,864.0,70.8,0.87,73
1309429,10475974046,839.0,71.4,0.883,73
1309939,10480054045,0.0,0.0,0.777,75
1310054,10480974044,919.0,65.2,0.857,73
1310163,10481846043,871.0,67.0,0.867,73
1310262,10482638044,792.0,68.8,0.824,73
1310400,10483742043,1103.0,68.8,0.491,185
1310491,10484470045,728.0,68.8,0.541,169
1310589,10485254043,783.0,68.8,0.511,169
1310689,10486054043,800.0,68.8,0.506,169
1311204,10490174043,0.0,0.0,0.793,75
1311309,10491014043,840.0,71.4,0.877,73
1311411,10491830043,816.0,72.5,0.856,73
1311515,10492662043,832.0,72.1,0.875,73
1311624,10493534043,872.0,71.8,0.872,73
1311731,10494390043,856.0,71.4,0.87,73
1311832,10495198044,808.0,71.8,0.866,73
1311935,10496022043,823.0,72.1,0.868,73
1312039,10496854047,832.0,72.1,0.856,73
1312137,10497638043,783.0,72.1,0.851,73
1312235,10498422047,784.0,72.8,0.857,73
1312331,10499190046,767.0,72.8,0.833,73
1312423,10499926044,735.0,74.3,0.815,73
1312594,10501294043,1367.0,74.3,0.764,169
1312677,10501958043,664.0,74.3,0.811,169
1312763,10502646043,688.0,74.3,0.857,169
1312853,10503366044,720.0,74.3,0.881,169
1312951,10504150044,784.0,74.3,0.864,169
1313051,10504950043,799.0,74.3,0.829,169
1313150,10505742046,792.0,74.3,0.827,73
1313251,10506550043,807.0,74.3,0.867,73
1313358,10507406045,856.0,74.3,0.861,73
1313464,10508254043,847.0,74.3,0.85,73
1313565,10509062047,808.0,74.3,0.849,73
1313663,10509846045,783.0,74.3,0.874,73
1313761,10510630044,783.0,74.3,0.871,73
1313858,10511406043,775.0,74.3,0.845,73
1313952,10512158047,752.0,74.3,0.846,73
1314046,10512910043,751.0,76.5,0.859,73
1314143,10513686043,776.0,76.5,0.857,73
1314238,10514446043,760.0,77.3,0.834,73
1314332,10515198043,752.0,77.3,0.843,73
1314431,10515990045,792.0,77.3,0.858,73
1314538,10516846047,856.0,77.3,0.87,73
1314649,10517734047,888.0,77.3,0.858,73
1314758,10518606043,871.0,77.3,0.832,73
1314863,10519446043,840.0,75.8,0.837,73
1314969,10520294044,848.0,71.4,0.82,73
1315068,10521086043,791.0,71.4,0.826,73
1315167,10521878045,792.0,71.4,0.847,73
1315267,10522678046,800.0,71.4,0.861,73
1315367,10523478043,799.0,71.4,0.864,73
1315467,10524278046,800.0,75.0,0.847,73
1315569,10525094045,815.0,75.0,0.864,73
1315676,10525950043,855.0,75.0,0.867,73
1316021,10528710043,0.0,0.0,0.802,75
1316462,10532238043,0.0,0.0,0.799,75
1316562,10533038043,800.0,75.0,0.864,73
1316660,10533822043,784.0,75.8,0.855,73
1316756,10534590043,768.0,76.5,0.865,73
1316857,10535398044,808.0,75.8,0.868,73
1316963,10536246047,848.0,75.0,0.865,73
1317069,10537094043,847.0,74.6,0.849,73
1317178,10537966044,872.0,74.3,0.859,73
1317294,10538894045,928.0,72.5,0.835,73
1317408,10539806047,912.0,70.8,0.818,73
1317521,10540710043,903.0,70.8,0.801,73
1317630,10541582043,872.0,68.8,0.809,73
1317743,10542486043,904.0,68.8,0.812,169
1317854,10543374047,888.0,68.8,0.807,169
1317966,10544270043,895.0,68.8,0.796,169
1318073,10545126046,856.0,68.8,0.794,169
1318180,10545982043,855.0,68.8,0.803,169
1318287,10546838043,856.0,68.8,0.798,73
1318391,10547670045,832.0,68.8,0.853,73
1318494,10548494043,823.0,68.8,0.861,73
1318597,10549318044,824.0,68.8,0.865,73
1318698,10550126045,808.0,68.8,0.824,73
1318795,10550902043,775.0,72.1,0.821,73
1318897,10551718043,816.0,72.8,0.823,73
1319006,10552590046,872.0,72.8,0.838,73
1319112,10553438046,848.0,72.8,0.846,73
1319217,10554278046,840.0,72.8,0.85,73
1319315,10555062043,783.0,72.8,0.824,73
1319410,10555822043,760.0,73.5,0.811,73
1319580,10557182043,1360.0,73.5,0.763,169
1319661,10557830044,648.0,73.5,0.815,169
1319740,10558462046,632.0,73.5,0.865,169
1319817,10559078045,615.0,73.5,0.839,169
1319971,10560310045,1232.0,73.5,0.82,169
1320583,10565206043,0.0,0.0,0.784,75
1320686,10566030043,824.0,72.8,0.857,73
1320783,10566806047,776.0,75.0,0.842,73
1320878,10567566043,759.0,77.3,0.856,73
1320971,10568310045,744.0,78.1,0.863,73
1321058,10569006043,695.0,78.9,0.846,73
1321143,10569686044,680.0,79.8,0.815,73
1321257,10570598045,912.0,79.8,0.524,169
1321386,10571630044,1031.0,79.8,0.795,169
1321471,10572310043,679.0,79.8,0.814,169
1321565,10573062044,752.0,79.8,0.819,169
1321664,10573854046,792.0,79.8,0.8,169
1322087,10577238043,0.0,0.0,0.794,75
1322195,10578102044,864.0,69.4,0.872,73
1322301,10578950047,848.0,70.1,0.863,73
1322396,10579710043,759.0,70.8,0.847,73
1322517,10580678043,968.0,70.8,0.53,169
1322655,10581782043,1104.0,70.8,0.819,169
1323159,10585814043,0.0,0.0,0.775,75
1323262,10586638043,824.0,72.8,0.867,73
1323364,10587454043,816.0,73.2,0.869,73
1323469,10588294047,840.0,72.8,0.87,73
1323573,10589126043,831.0,72.5,0.865,73
1323672,10589918047,792.0,72.8,0.854,73
1323776,10590750043,831.0,72.5,0.87,73
1323878,10591566043,816.0,72.8,0.866,73
1323983,10592406046,840.0,72.5,0.863,73
1324079,10593174043,767.0,72.8,0.832,73
1324177,10593958047,784.0,73.5,0.869,73
1324452,10596158047,0.0,0.0,0.802,75
1324541,10596870047,712.0,84.3,0.883,73
1324885,10599622045,0.0,0.0,0.807,75
1325012,10600638043,1015.0,0.0,0.372,185
1325052,10600958046,320.0,0.0,0.86,169
1325135,10601622045,663.0,0.0,0.857,169
1325216,10602270045,648.0,0.0,0.858,169
1325297,10602918043,647.0,0.0,0.856,169
1325376,10603550046,632.0,0.0,0.861,169
1325453,10604166043,615.0,0.0,0.86,169
1325533,10604806045,640.0,92.6,0.851,73
1325614,10605454047,648.0,92.6,0.875,73
1325698,10606126043,671.0,92.6,0.866,73
1325781,10606790043,664.0,91.5,0.854,73
1325867,10607478046,688.0,90.4,0.872,73
1325956,10608190045,711.0,89.8,0.852,73
1326047,10608918043,727.0,89.3,0.838,73
1326139,10609654043,736.0,88.2,0.816,73
1326230,10610382047,728.0,87.2,0.805,73
1326318,10611086044,703.0,85.2,0.814,73
1326412,10611838044,752.0,84.3,0.812,73
1326510,10612622043,783.0,84.3,0.793,169
1326562,10613038043,416.0,84.3,0.465,185
1326639,10613654044,616.0,84.3,0.542,169
1326737,10614438043,783.0,84.3,0.537,169
1326835,10615222043,784.0,84.3,0.55,169
1326906,10615790043,568.0,84.3,0.858,169
1327004,10616574043,784.0,84.3,0.86,169
1327101,10617350044,776.0,84.3,0.87,73
1327196,10618110043,759.0,82.4,0.859,73
1327286,10618830043,720.0,82.4,0.868,73
1327378,10619566046,736.0,82.4,0.871,73
1327471,10620310043,743.0,81.5,0.873,73
1327562,10621038043,728.0,82.4,0.867,73
1327656,10621790047,752.0,81.5,0.873,73
1327751,10622550043,759.0,80.6,0.873,73
1327842,10623278043,728.0,81.5,0.858,73
1327932,10623998044,720.0,81.5,0.876,73
1328019,10624694046,696.0,82.4,0.864,73
1328102,10625358043,663.0,82.4,0.831,73
1328182,10625998043,640.0,82.4,0.831,73
1328305,10626982049,984.0,82.4,0.448,185
1328376,10627550043,567.0,82.4,0.512,169
1328494,10628494044,944.0,82.4,0.805,169
1328580,10629182045,688.0,82.4,0.849,169
1329910,10639822043,0.0,0.0,0.795,75
1329991,10640470043,648.0,92.6,0.865,73
1330070,10641102045,632.0,93.8,0.871,73
1330153,10641766043,663.0,92.6,0.881,73
1330242,10642478043,712.0,91.5,0.879,73
1330337,10643238045,760.0,90.4,0.836,73
1330434,10644014043,775.0,87.2,0.798,73
1330529,10644774047,760.0,87.2,0.773,169
1330619,10645494043,719.0,87.2,0.787,169
1330710,10646222047,728.0,87.2,0.794,169
1330763,10646646043,423.0,87.2,0.46,185
1330849,10647334043,688.0,87.2,0.463,185
1330935,10648022045,688.0,87.2,0.472,185
1331021,10648710044,687.0,87.2,0.512,169
1331115,10649462046,752.0,87.2,0.518,169
1331217,10650278045,815.0,87.2,0.438,185
1331264,10650654043,375.0,87.2,0.817,169
1331356,10651390043,736.0,84.3,0.843,73
1331452,10652158045,768.0,82.8,0.867,73
1331547,10652918043,759.0,81.3,0.852,73
1331638,10653646044,728.0,81.3,0.861,73
1331731,10654390043,743.0,80.6,0.868,73
1331821,10655110045,720.0,80.6,0.857,73
1331911,10655830045,720.0,80.6,0.877,73
1332003,10656566043,735.0,81.3,0.873,73
1332096,10657310046,744.0,81.3,0.875,73
1332190,10658062047,752.0,80.6,0.858,73
1332284,10658814046,751.0,80.6,0.879,73
1332383,10659606044,791.0,80.6,0.863,73
1332476,10660350047,744.0,80.6,0.858,73
1332565,10661062047,712.0,80.6,0.862,73
1332652,10661758047,696.0,80.6,0.869,73
1332739,10662454043,695.0,80.6,0.866,73
1332824,10663134047,680.0,80.6,0.847,73
1332913,10663846046,711.0,84.3,0.844,73
1333002,10664558043,711.0,84.3,0.846,73
1333091,10665270043,712.0,84.3,0.863,73
1333184,10666014043,744.0,84.3,0.864,73
1333273,10666726047,712.0,84.3,0.863,73
1333367,10667478043,751.0,84.3,0.874,73
1333463,10668246047,768.0,84.3,0.87,73
1333556,10668990043,743.0,84.3,0.86,73
1333649,10669734044,744.0,80.6,0.86,73
1333743,10670486046,752.0,80.6,0.87,73
1333839,10671254043,767.0,80.6,0.863,73
1333931,10671990043,736.0,80.6,0.861,73
1334023,10672726047,736.0,80.6,0.891,73
1334112,10673438047,712.0,80.6,0.883,73
1334199,10674134043,695.0,80.6,0.868,73
1334282,10674798043,664.0,81.5,0.84,73
1334363,10675446047,648.0,81.5,0.806,73
1334498,10676526046,1079.0,81.5,0.418,185
1334607,10677398043,871.0,81.5,0.797,169
1334693,10678086043,688.0,81.5,0.805,169
1334781,10678790043,704.0,81.5,0.8,169
1334871,10679510043,720.0,81.5,0.799,169
1334964,10680254043,744.0,81.5,0.784,169
1335058,10681006043,752.0,84.3,0.789,73
1335152,10681758045,752.0,84.3,0.863,73
1335249,10682534047,776.0,84.3,0.853,73
1335342,10683278046,743.0,84.3,0.841,73
1335435,10684022043,743.0,84.3,0.853,73
1335530,10684782047,760.0,80.6,0.845,73
1335621,10685510043,727.0,80.6,0.845,73
1335710,10686222043,712.0,80.6,0.868,73
1335802,10686958047,736.0,80.6,0.866,73
1335896,10687710047,752.0,80.6,0.87,73
1335990,10688462044,751.0,80.6,0.86,73
1336086,10689230045,768.0,80.6,0.865,73
1336182,10689998043,767.0,79.8,0.866,73
1336273,10690726047,728.0,79.8,0.854,73
1336365,10691462043,735.0,81.5,0.867,73
1336457,10692198043,736.0,81.5,0.873,73
1336546,10692910044,712.0,81.5,0.873,73
1336636,10693630047,720.0,81.5,0.878,73
1336730,10694382043,751.0,81.5,0.879,73
1336827,10695158043,776.0,81.5,0.873,73
1336921,10695910044,752.0,81.5,0.865,73
1337017,10696678043,767.0,81.5,0.86,73
1337113,10697446043,768.0,79.8,0.858,73
1337206,10698190045,744.0,79.8,0.855,73
1337298,10698926045,736.0,79.8,0.866,73
1337390,10699662043,735.0,79.8,0.869,73
1337482,10700398046,736.0,79.8,0.865,73
1337569,10701094043,695.0,80.6,0.862,73
1337658,10701806047,712.0,81.5,0.877,73
1337750,10702542046,735.0,81.5,0.87,73
1337841,10703270043,727.0,81.5,0.866,73
1337931,10703990045,720.0,81.5,0.852,73
1338020,10704702047,712.0,82.4,0.865,73
1338110,10705422043,719.0,83.3,0.876,73
1338201,10706150043,728.0,83.3,0.874,73
1338292,10706878045,728.0,83.3,0.862,73
1338381,10707590046,712.0,83.3,0.871,73
1338475,10708342043,751.0,82.4,0.88,73
1338570,10709102043,760.0,82.4,0.877,73
1338669,10709894045,792.0,82.4,0.856,73
1338766,10710670043,775.0,82.4,0.843,73
1338858,10711406045,736.0,81.5,0.85,73
1338951,10712150046,744.0,80.6,0.869,73
1339044,10712894043,743.0,80.6,0.852,73
1339135,10713622043,728.0,80.6,0.86,73
1339226,10714350043,728.0,80.6,0.874,73
1339323,10715126047,776.0,80.6,0.875,73
1339423,10715926045,799.0,80.6,0.861,73
1339519,10716694043,767.0,80.6,0.842,73
1339616,10717470046,776.0,80.6,0.844,73
1339713,10718246045,775.0,78.1,0.834,73
1339807,10718998043,751.0,78.1,0.841,73
1339903,10719766046,768.0,78.1,0.855,73
1339997,10720518043,751.0,78.1,0.857,73
1340090,10721262043,744.0,78.1,0.852,73
1340182,10721998047,736.0,78.1,0.862,73
1340275,10722742045,743.0,79.8,0.871,73
1340371,10723510045,768.0,79.8,0.862,73
1340466,10724270043,759.0,79.8,0.857,73
1340562,10725038043,768.0,79.8,0.868,73
1340658,10725806047,768.0,78.9,0.872,73
1340755,10726582043,775.0,78.9,0.857,73
1340843,10727286045,704.0,78.9,0.865,73
1340933,10728006046,720.0,78.9,0.872,73
1341025,10728742043,735.0,78.9,0.87,73
1341117,10729478047,736.0,78.9,0.864,73
1341210,10730222046,743.0,80.6,0.864,73
1341300,10730942043,719.0,81.5,0.858,73
1341396,10731710044,768.0,81.5,0.872,73
1341492,10732478043,767.0,81.5,0.867,73
1341588,10733246046,768.0,81.5,0.859,73
1341680,10733982043,735.0,81.5,0.853,73
1341766,10734670046,688.0,81.5,0.854,73
1341851,10735350047,680.0,81.5,0.853,73
1341932,10735998043,647.0,81.5,0.818,73
1342085,10737222043,1224.0,81.5,0.772,169
1342159,10737814046,592.0,81.5,0.803,169
1342239,10738454043,639.0,81.5,0.86,169
1342321,10739110045,656.0,81.5,0.855,169
1342836,10743230043,0.0,0.0,0.811,75
1342927,10743958043,728.0,82.4,0.861,73
1343026,10744750043,792.0,78.9,0.867,73
1343398,10747726045,0.0,0.0,0.792,75
1343482,10748398043,671.0,89.3,0.848,73
1343747,10750518043,0.0,0.0,0.82,75
1343839,10751254045,736.0,81.5,0.886,73
1343933,10752006043,751.0,80.6,0.87,73
1344037,10752838043,832.0,79.8,0.859,73
1344342,10755278043,0.0,0.0,0.805,75
1344447,10756118046,840.0,71.4,0.865,73
1344555,10756982043,863.0,70.4,0.869,73
1344662,10757838046,856.0,70.1,0.866,73
1344768,10758686047,848.0,70.4,0.871,73
1344866,10759470044,783.0,70.8,0.844,73
1344966,10760270046,800.0,71.1,0.856,73
1345066,10761070043,799.0,71.4,0.856,73
1345167,10761878046,808.0,72.8,0.852,73
1345269,10762694045,815.0,73.5,0.843,73
1345370,10763502047,808.0,74.3,0.842,73
1345469,10764294046,791.0,74.3,0.831,73
1345569,10765094043,799.0,75.0,0.851,73
1345674,10765934047,840.0,75.0,0.859,73
1345776,10766750045,815.0,74.3,0.856,73
1345875,10767542043,791.0,74.3,0.848,73
1345977,10768358045,816.0,74.3,0.861,73
1346081,10769190043,831.0,73.5,0.864,73
1346187,10770038047,848.0,73.5,0.866,73
1346294,10770894043,855.0,73.5,0.871,73
1346399,10771734047,840.0,72.1,0.853,73
1346501,10772550043,815.0,72.1,0.865,73
1346596,10773310043,760.0,73.5,0.849,73
1346688,10774046043,736.0,73.5,0.842,73
1346786,10774830043,784.0,73.5,0.858,73
1346884,10775614045,784.0,73.5,0.848,73
1346987,10776438043,823.0,73.5,0.851,73
1347293,10778886045,0.0,0.0,0.795,75
1347387,10779638043,751.0,79.8,0.858,73
1347484,10780414043,776.0,78.5,0.87,73
1347578,10781166047,752.0,79.8,0.855,73
1347672,10781918044,751.0,79.8,0.878,73
1347771,10782710044,792.0,79.8,0.858,73
1347871,10783510044,800.0,78.5,0.858,73
1347967,10784278043,767.0,78.1,0.852,73
1348064,10785054043,776.0,77.7,0.853,73
1348155,10785782045,728.0,78.1,0.856,73
1348243,10786486046,704.0,78.1,0.857,73
1348332,10787198044,711.0,79.8,0.854,73
1348420,10787902047,704.0,79.8,0.836,73
1348536,10788830046,927.0,79.8,0.515,169
1348659,10789814043,983.0,79.8,0.804,169
1348739,10790454043,640.0,79.8,0.828,169
1348818,10791086043,632.0,79.8,0.846,169
1349408,10795806043,0.0,0.0,0.813,75
1349527,10796758043,952.0,0.0,0.443,185
1349574,10797134046,376.0,0.0,0.863,169
1349654,10797774043,639.0,0.0,0.864,169
1349735,10798422045,648.0,0.0,0.871,169
1349818,10799086044,663.0,0.0,0.866,169
1349903,10799766043,679.0,0.0,0.854,169
1349987,10800438044,672.0,0.0,0.862,169
1350071,10801110043,671.0,90.5,0.854,73
1350154,10801774043,664.0,90.4,0.867,73
1350238,10802446047,672.0,90.4,0.869,73
1350323,10803126043,679.0,89.8,0.879,73
1350410,10803822047,696.0,89.3,0.878,73
1350500,10804542043,719.0,88.8,0.857,73
1350589,10805254046,712.0,88.2,0.852,73
1350676,10805950043,695.0,87.2,0.856,73
1350765,10806662045,712.0,86.2,0.859,73
1350855,10807382043,719.0,86.2,0.849,73
1350941,10808070043,688.0,86.2,0.841,73
1351027,10808758043,688.0,86.2,0.875,73
1351495,10812502045,0.0,0.0,0.774,75
1351584,10813214043,711.0,84.3,0.848,73
1351675,10813942043,728.0,83.3,0.868,73
1351763,10814646043,704.0,84.3,0.873,73
1351846,10815310043,664.0,84.7,0.855,73
1351930,10815982047,672.0,85.2,0.862,73
1352016,10816670045,687.0,86.2,0.852,73
1352102,10817358044,687.0,87.2,0.873,73
1352194,10818094043,735.0,86.2,0.887,73
1352576,10821150043,0.0,0.0,0.813,75
1352671,10821910045,760.0,78.9,0.873,73
1352762,10822638043,727.0,80.6,0.854,73
