seq,t_us,raw,avg,filtered,candidate,detector_score,expected_rr_ms,hr_bpm,flags
1314098,10513326046,0.0,0.0,-158.0,0,0.479,796.8,74.3,3
1314099,10513334045,0.0,0.0,-157.0,0,0.477,796.8,74.3,3
1314100,10513342046,0.0,0.0,-156.0,0,0.475,777.6,76.5,3
1314101,10513350045,0.0,0.0,-155.0,0,0.474,777.6,76.5,3
1314102,10513358043,0.0,0.0,-154.0,0,0.472,777.6,76.5,3
1314103,10513366043,0.0,0.0,-153.0,0,0.47,777.6,76.5,3
1314104,10513374043,3.0,1.0,-151.0,0,0.475,777.6,76.5,1
1314105,10513382043,11.0,3.0,-149.0,0,0.472,777.6,76.5,1
1314106,10513390043,16.0,6.0,-147.0,0,0.47,777.6,76.5,1
1314107,10513398047,21.0,10.0,-144.0,0,0.474,777.6,76.5,1
1314108,10513406043,24.0,13.0,-141.0,0,0.47,777.6,76.5,1
1314109,10513414043,28.0,17.0,-137.0,0,0.473,777.6,76.5,1
1314110,10513422043,36.0,22.0,-133.0,0,0.468,777.6,76.5,1
1314111,10513430046,44.0,27.0,-128.0,0,0.47,777.6,76.5,1
1314112,10513438044,46.0,32.0,-123.0,0,0.464,779.2,76.5,1
1314113,10513446043,48.0,36.0,-118.0,0,0.459,779.2,76.5,1
1314114,10513454043,55.0,40.0,-113.0,0,0.453,779.2,76.5,1
1314115,10513462043,53.0,43.0,-108.0,0,0.448,779.2,76.5,1
1314116,10513470043,57.0,47.0,-104.0,0,0.436,779.2,76.5,1
1314117,10513478043,58.0,49.0,-100.0,0,0.431,779.2,76.5,1
1314118,10513486043,63.0,53.0,-96.0,0,0.427,779.2,76.5,1
1314119,10513494046,69.0,57.0,-92.0,0,0.423,779.2,76.5,1
1314120,10513502045,76.0,61.0,-87.0,0,0.425,779.2,76.5,1
1314121,10513510043,88.0,68.0,-82.0,0,0.42,779.2,76.5,1
1314122,10513518044,97.0,75.0,-76.0,0,0.421,779.2,76.5,1
1314123,10513526047,124.0,87.0,-68.0,0,0.428,779.2,76.5,1
1314124,10513534047,149.0,102.0,-59.0,0,0.426,779.2,76.5,1
1314125,10513542043,186.0,122.0,-46.0,0,0.443,779.2,76.5,1
1314126,10513550047,227.0,148.0,-29.0,0,0.456,779.2,76.5,1
1314127,10513558043,272.0,178.0,-9.0,0,0.466,779.2,76.5,1
1314128,10513566044,321.0,213.0,15.0,0,0.514,779.2,76.5,1
1314129,10513574044,364.0,249.0,43.0,0,0.565,779.2,76.5,1
1314130,10513582043,411.0,288.0,73.0,0,0.607,779.2,76.5,1
1314131,10513590045,453.0,328.0,106.0,0,0.657,779.2,76.5,1
1314132,10513598047,496.0,369.0,141.0,0,0.703,779.2,76.5,1
1314133,10513606043,532.0,409.0,177.0,0,0.744,779.2,76.5,1
1314134,10513614047,561.0,445.0,212.0,0,0.775,779.2,76.5,1
1314135,10513622045,583.0,479.0,246.0,0,0.8,779.2,76.5,1
1314136,10513630043,601.0,508.0,278.0,0,0.816,779.2,76.5,1
1314137,10513638043,609.0,533.0,308.0,0,0.827,779.2,76.5,1
1314138,10513646043,616.0,553.0,334.0,0,0.821,779.2,76.5,1
1314139,10513654043,611.0,567.0,355.0,0,0.802,779.2,76.5,1
1314140,10513662043,603.0,576.0,372.0,0,0.782,779.2,76.5,1
1314141,10513670043,590.0,579.0,385.0,0,0.758,779.2,76.5,1
1314142,10513678043,568.0,576.0,392.0,0,0.715,779.2,76.5,1
1314143,10513686043,551.0,570.0,395.0,0,0.687,779.2,76.5,1
1314144,10513694047,523.0,559.0,393.0,1,0.677,779.2,76.5,1
1314145,10513702043,495.0,543.0,386.0,0,0.707,779.2,76.5,1
1314146,10513710043,464.0,524.0,376.0,0,0.722,779.2,76.5,1
1314147,10513718044,435.0,503.0,361.0,0,0.749,779.2,76.5,1
1314148,10513726043,396.0,477.0,343.0,0,0.757,779.2,76.5,1
1314149,10513734046,358.0,448.0,321.0,0,0.766,779.2,76.5,1
1314150,10513742043,324.0,418.0,296.0,0,0.762,779.2,76.5,1
1314151,10513750047,289.0,387.0,269.0,0,0.749,779.2,76.5,1
1314152,10513758046,251.0,354.0,240.0,0,0.73,779.2,76.5,1
1314153,10513766043,218.0,321.0,210.0,0,0.703,779.2,76.5,1
1314154,10513774047,186.0,288.0,179.0,0,0.674,779.2,76.5,1
1314155,10513782046,160.0,257.0,148.0,0,0.639,779.2,76.5,1
1314156,10513790047,133.0,227.0,117.0,0,0.603,779.2,76.5,1
1314157,10513798045,112.0,199.0,86.0,0,0.569,779.2,76.5,1
1314158,10513806047,98.0,175.0,58.0,0,0.525,779.2,76.5,1
1314159,10513814043,82.0,152.0,31.0,0,0.493,779.2,76.5,1
1314160,10513822045,68.0,132.0,6.0,0,0.49,779.2,76.5,1
1314161,10513830047,62.0,115.0,-16.0,0,0.494,779.2,76.5,1
1314162,10513838044,49.0,99.0,-36.0,0,0.502,779.2,76.5,1
1314163,10513846045,48.0,87.0,-54.0,0,0.508,779.2,76.5,1
1314164,10513854043,39.0,75.0,-70.0,0,0.512,779.2,76.5,1
1314165,10513862044,39.0,66.0,-84.0,0,0.514,779.2,76.5,1
1314166,10513870043,39.0,60.0,-95.0,0,0.505,779.2,76.5,1
1314167,10513878043,31.0,53.0,-105.0,0,0.508,779.2,76.5,1
1314168,10513886043,25.0,46.0,-114.0,0,0.511,779.2,76.5,1
1314169,10513894044,25.0,41.0,-121.0,0,0.504,779.2,76.5,1
1314170,10513902047,21.0,36.0,-128.0,0,0.511,779.2,76.5,1
1314171,10513910043,15.0,31.0,-133.0,0,0.501,779.2,76.5,1
1314172,10513918043,11.0,26.0,-139.0,0,0.514,779.2,76.5,1
1314173,10513926044,10.0,22.0,-143.0,0,0.503,779.2,76.5,1
1314174,10513934046,2.0,17.0,-147.0,0,0.507,779.2,76.5,1
1314175,10513942043,0.0,13.0,-151.0,0,0.51,779.2,76.5,3
1314176,10513950043,0.0,10.0,-155.0,0,0.513,779.2,76.5,3
1314177,10513958045,0.0,8.0,-158.0,0,0.509,779.2,76.5,3
1314178,10513966046,0.0,6.0,-160.0,0,0.503,779.2,76.5,3
1314179,10513974047,0.0,4.0,-162.0,0,0.504,779.2,76.5,3
1314180,10513982045,0.0,3.0,-163.0,0,0.498,779.2,76.5,3
1314181,10513990047,0.0,2.0,-164.0,0,0.498,779.2,76.5,3
1314182,10513998046,0.0,2.0,-164.0,1,0.49,779.2,76.5,3
1314183,10514006043,0.0,1.0,-164.0,0,0.489,779.2,76.5,3
1314184,10514014044,0.0,1.0,-164.0,0,0.488,779.2,76.5,3
1314185,10514022045,0.0,1.0,-164.0,0,0.487,779.2,76.5,3
1314186,10514030047,0.0,1.0,-163.0,0,0.492,779.2,76.5,3
1314187,10514038046,0.0,0.0,-162.0,0,0.489,779.2,76.5,3
1314188,10514046043,0.0,0.0,-162.0,1,0.482,779.2,76.5,3
1314189,10514054043,0.0,0.0,-161.0,0,0.486,779.2,76.5,3
1314190,10514062044,0.0,0.0,-160.0,0,0.484,782.4,76.5,3
1314191,10514070047,0.0,0.0,-159.0,0,0.482,782.4,76.5,3
1314192,10514078043,0.0,0.0,-158.0,0,0.48,782.4,76.5,3
1314193,10514086046,0.0,0.0,-157.0,0,0.478,782.4,76.5,3
1314194,10514094045,0.0,0.0,-156.0,0,0.476,782.4,76.5,3
1314195,10514102045,0.0,0.0,-155.0,0,0.474,782.4,76.5,3
1314196,10514110043,0.0,0.0,-154.0,0,0.472,782.4,76.5,3
1314197,10514118043,3.0,1.0,-153.0,0,0.471,782.4,76.5,1
1314198,10514126043,12.0,3.0,-151.0,0,0.475,782.4,76.5,1
1314199,10514134044,16.0,7.0,-149.0,0,0.472,782.4,76.5,1
1314200,10514142045,19.0,10.0,-146.0,0,0.476,782.4,76.5,1
1314201,10514150043,23.0,13.0,-143.0,0,0.472,782.4,76.5,1
1314202,10514158043,28.0,16.0,-139.0,0,0.474,782.4,76.5,1
1314203,10514166043,36.0,21.0,-135.0,0,0.47,782.4,76.5,1
1314204,10514174043,40.0,26.0,-130.0,0,0.471,782.4,76.5,1
1314205,10514182043,44.0,30.0,-126.0,0,0.459,782.4,76.5,1
1314206,10514190043,51.0,35.0,-121.0,0,0.461,782.4,76.5,1
1314207,10514198045,49.0,39.0,-116.0,0,0.455,782.4,76.5,1
1314208,10514206044,55.0,43.0,-111.0,0,0.449,782.4,76.5,1
1314209,10514214043,54.0,45.0,-107.0,0,0.437,782.4,76.5,1
1314210,10514222043,62.0,49.0,-102.0,0,0.439,782.4,76.5,1
1314211,10514230043,60.0,52.0,-98.0,0,0.427,782.4,76.5,1
1314212,10514238047,61.0,54.0,-95.0,0,0.417,782.4,76.5,1
1314213,10514246045,64.0,57.0,-91.0,0,0.42,782.4,76.5,1
1314214,10514254045,68.0,59.0,-88.0,0,0.409,782.4,76.5,1
1314215,10514262045,79.0,64.0,-84.0,0,0.412,782.4,76.5,1
1314216,10514270047,83.0,69.0,-80.0,0,0.408,782.4,76.5,1
1314217,10514278044,96.0,75.0,-74.0,0,0.417,782.4,76.5,1
1314218,10514286045,117.0,85.0,-68.0,0,0.411,782.4,76.5,1
1314219,10514294046,138.0,98.0,-59.0,0,0.424,782.4,76.5,1
1314220,10514302043,171.0,116.0,-48.0,0,0.428,782.4,76.5,1
1314221,10514310046,204.0,137.0,-34.0,0,0.437,782.4,76.5,1
1314222,10514318043,246.0,164.0,-17.0,0,0.442,782.4,76.5,1
1314223,10514326045,290.0,194.0,4.0,0,0.482,782.4,76.5,1
1314224,10514334043,334.0,228.0,29.0,0,0.531,782.4,76.5,1
1314225,10514342043,376.0,264.0,57.0,0,0.576,782.4,76.5,1
1314226,10514350043,419.0,302.0,87.0,0,0.618,782.4,76.5,1
1314227,10514358043,460.0,340.0,119.0,0,0.662,782.4,76.5,1
1314228,10514366046,496.0,378.0,152.0,0,0.702,782.4,76.5,1
1314229,10514374047,523.0,413.0,185.0,0,0.736,782.4,76.5,1
1314230,10514382043,548.0,446.0,218.0,0,0.767,782.4,76.5,1
1314231,10514390043,564.0,474.0,249.0,0,0.784,782.4,76.5,1
1314232,10514398043,576.0,499.0,277.0,0,0.791,782.4,76.5,1
1314233,10514406045,580.0,519.0,303.0,0,0.798,782.4,76.5,1
1314234,10514414046,573.0,532.0,324.0,0,0.781,782.4,76.5,1
1314235,10514422043,570.0,541.0,341.0,0,0.763,782.4,76.5,1
1314236,10514430043,556.0,545.0,353.0,0,0.732,782.4,76.5,1
1314237,10514438047,539.0,543.0,361.0,0,0.706,782.4,76.5,1
1314238,10514446043,522.0,538.0,364.0,0,0.67,782.4,76.5,1
1314239,10514454047,500.0,529.0,363.0,1,0.655,782.4,76.5,1
1314240,10514462043,473.0,515.0,358.0,0,0.678,782.4,76.5,1
1314241,10514470044,445.0,498.0,349.0,0,0.699,782.4,76.5,1
1314242,10514478047,410.0,477.0,335.0,0,0.725,782.4,76.5,1
1314243,10514486045,379.0,453.0,319.0,0,0.726,782.4,76.5,1
1314244,10514494047,337.0,425.0,298.0,0,0.742,782.4,76.5,1
1314245,10514502047,305.0,396.0,275.0,0,0.734,782.4,76.5,1
1314246,10514510047,271.0,366.0,249.0,0,0.726,782.4,76.5,1
1314247,10514518043,236.0,334.0,221.0,0,0.707,782.4,76.5,1
1314248,10514526046,203.0,302.0,192.0,0,0.681,782.4,76.5,1
1314249,10514534046,172.0,271.0,162.0,0,0.652,782.4,76.5,1
1314250,10514542043,144.0,240.0,132.0,0,0.618,782.4,76.5,1
1314251,10514550045,124.0,212.0,102.0,0,0.584,782.4,76.5,1
1314252,10514558043,103.0,186.0,74.0,0,0.544,782.4,76.5,1
1314253,10514566043,91.0,163.0,47.0,0,0.511,782.4,76.5,1
1314254,10514574043,76.0,142.0,21.0,0,0.48,782.4,76.5,1
1314255,10514582045,67.0,124.0,-2.0,0,0.484,782.4,76.5,1
1314256,10514590045,61.0,108.0,-22.0,0,0.486,782.4,76.5,1
1314257,10514598043,56.0,96.0,-41.0,0,0.499,782.4,76.5,1
1314258,10514606044,54.0,86.0,-56.0,0,0.489,782.4,76.5,1
1314259,10514614043,48.0,76.0,-70.0,0,0.497,782.4,76.5,1
1314260,10514622043,44.0,69.0,-82.0,0,0.496,782.4,76.5,1
1314261,10514630043,46.0,63.0,-92.0,0,0.492,782.4,76.5,1
1314262,10514638047,45.0,59.0,-100.0,0,0.487,782.4,76.5,1
1314263,10514646043,41.0,54.0,-106.0,0,0.479,782.4,76.5,1
1314264,10514654043,35.0,50.0,-112.0,0,0.485,782.4,76.5,1
1314265,10514662046,35.0,46.0,-117.0,0,0.482,782.4,76.5,1
1314266,10514670043,32.0,43.0,-121.0,0,0.479,782.4,76.5,1
1314267,10514678043,26.0,39.0,-125.0,0,0.482,782.4,76.5,1
1314268,10514686046,23.0,35.0,-129.0,0,0.486,780.8,76.5,1
1314269,10514694043,20.0,31.0,-132.0,0,0.481,780.8,76.5,1
1314270,10514702047,17.0,28.0,-135.0,0,0.484,780.8,76.5,1
1314271,10514710043,12.0,24.0,-139.0,0,0.494,780.8,76.5,1
1314272,10514718043,6.0,20.0,-142.0,0,0.489,780.8,76.5,1
1314273,10514726043,4.0,16.0,-145.0,0,0.492,780.8,76.5,1
1314274,10514734044,0.0,12.0,-148.0,0,0.494,780.8,76.5,3
1314275,10514742045,0.0,9.0,-150.0,0,0.489,780.8,76.5,3
1314276,10514750046,0.0,7.0,-153.0,0,0.498,780.8,76.5,3
1314277,10514758044,0.0,5.0,-154.0,0,0.485,780.8,76.5,3
1314278,10514766046,0.0,4.0,-156.0,0,0.492,780.8,76.5,3
1314279,10514774045,0.0,3.0,-157.0,0,0.486,780.8,76.5,3
1314280,10514782046,0.0,2.0,-157.0,1,0.478,780.8,76.5,3
1314281,10514790045,0.0,2.0,-157.0,0,0.477,780.8,76.5,3
1314282,10514798046,0.0,1.0,-157.0,0,0.476,780.8,76.5,3
1314283,10514806046,0.0,1.0,-157.0,0,0.475,780.8,76.5,3
1314284,10514814046,0.0,1.0,-157.0,0,0.474,780.8,76.5,3
1314285,10514822044,0.0,1.0,-156.0,0,0.478,780.8,76.5,3
1314286,10514830046,0.0,0.0,-156.0,1,0.471,780.8,76.5,3
1314287,10514838043,0.0,0.0,-155.0,0,0.476,780.8,76.5,3
1314288,10514846046,0.0,0.0,-154.0,0,0.474,780.8,76.5,3
1314289,10514854044,0.0,0.0,-153.0,0,0.472,780.8,76.5,3
1314290,10514862045,0.0,0.0,-152.0,0,0.47,780.8,76.5,3
1314291,10514870047,10.0,3.0,-151.0,0,0.468,780.8,76.5,1
1314292,10514878043,12.0,5.0,-149.0,0,0.473,774.4,77.3,1
1314293,10514886043,22.0,9.0,-146.0,0,0.476,774.4,77.3,1
1314294,10514894043,28.0,14.0,-142.0,0,0.479,774.4,77.3,1
1314295,10514902044,33.0,18.0,-138.0,0,0.474,774.4,77.3,1
1314296,10514910043,37.0,23.0,-134.0,0,0.469,774.4,77.3,1
1314297,10514918045,38.0,27.0,-129.0,0,0.471,774.4,77.3,1
1314298,10514926043,49.0,32.0,-124.0,0,0.465,774.4,77.3,1
1314299,10514934043,51.0,37.0,-119.0,0,0.459,774.4,77.3,1
1314300,10514942043,53.0,41.0,-114.0,0,0.453,774.4,77.3,1
1314301,10514950043,61.0,46.0,-109.0,0,0.448,774.4,77.3,1
1314302,10514958043,60.0,49.0,-104.0,0,0.442,774.4,77.3,1
1314303,10514966043,63.0,52.0,-99.0,0,0.437,774.4,77.3,1
1314304,10514974045,60.0,54.0,-95.0,0,0.425,774.4,77.3,1
1314305,10514982046,66.0,57.0,-92.0,0,0.414,774.4,77.3,1
1314306,10514990047,68.0,60.0,-88.0,0,0.417,774.4,77.3,1
1314307,10514998043,70.0,62.0,-85.0,0,0.407,772.8,77.3,1
1314308,10515006043,74.0,65.0,-81.0,0,0.41,772.8,77.3,1
1314309,10515014043,80.0,69.0,-78.0,0,0.399,772.8,77.3,1
1314310,10515022043,92.0,74.0,-73.0,0,0.409,772.8,77.3,1
1314311,10515030043,102.0,81.0,-68.0,0,0.404,772.8,77.3,1
1314312,10515038047,122.0,91.0,-62.0,0,0.405,772.8,77.3,1
1314313,10515046046,152.0,106.0,-53.0,0,0.419,772.8,77.3,1
1314314,10515054043,182.0,124.0,-41.0,0,0.43,772.8,77.3,1
1314315,10515062045,222.0,148.0,-26.0,0,0.437,772.8,77.3,1
1314316,10515070043,269.0,177.0,-7.0,0,0.459,772.8,77.3,1
1314317,10515078047,313.0,210.0,16.0,0,0.508,772.8,77.3,1
1314318,10515086043,361.0,247.0,43.0,0,0.558,772.8,77.3,1
1314319,10515094045,408.0,286.0,73.0,0,0.605,772.8,77.3,1
1314320,10515102043,449.0,325.0,105.0,0,0.65,772.8,77.3,1
1314321,10515110043,485.0,364.0,139.0,0,0.695,772.8,77.3,1
1314322,10515118043,524.0,403.0,173.0,0,0.731,772.8,77.3,1
1314323,10515126043,551.0,439.0,208.0,0,0.769,772.8,77.3,1
1314324,10515134043,572.0,471.0,241.0,0,0.79,772.8,77.3,1
1314325,10515142043,588.0,499.0,272.0,0,0.806,772.8,77.3,1
1314326,10515150047,597.0,523.0,301.0,0,0.816,772.8,77.3,1
1314327,10515158046,600.0,542.0,325.0,0,0.803,772.8,77.3,1
1314328,10515166043,597.0,555.0,346.0,0,0.795,772.8,77.3,1
1314329,10515174043,589.0,563.0,363.0,0,0.776,772.8,77.3,1
1314330,10515182047,584.0,568.0,375.0,0,0.745,772.8,77.3,1
1314331,10515190043,567.0,568.0,383.0,0,0.718,772.8,77.3,1
1314332,10515198043,548.0,563.0,387.0,0,0.689,772.8,77.3,1
1314333,10515206043,526.0,554.0,386.0,1,0.667,772.8,77.3,1
1314334,10515214043,500.0,541.0,381.0,0,0.69,772.8,77.3,1
1314335,10515222046,470.0,524.0,372.0,0,0.712,772.8,77.3,1
1314336,10515230047,440.0,503.0,359.0,0,0.732,772.8,77.3,1
1314337,10515238045,404.0,479.0,342.0,0,0.748,772.8,77.3,1
1314338,10515246046,369.0,453.0,322.0,0,0.753,772.8,77.3,1
1314339,10515254046,332.0,423.0,299.0,0,0.753,772.8,77.3,1
1314340,10515262043,293.0,392.0,273.0,0,0.746,772.8,77.3,1
1314341,10515270046,259.0,360.0,245.0,0,0.729,772.8,77.3,1
1314342,10515278047,221.0,326.0,215.0,0,0.708,772.8,77.3,1
1314343,10515286045,192.0,294.0,184.0,0,0.678,772.8,77.3,1
1314344,10515294043,164.0,262.0,153.0,0,0.643,772.8,77.3,1
1314345,10515302045,140.0,233.0,122.0,0,0.608,772.8,77.3,1
1314346,10515310045,115.0,204.0,92.0,0,0.57,772.8,77.3,1
1314347,10515318043,90.0,176.0,62.0,0,0.538,772.8,77.3,1
1314348,10515326043,83.0,154.0,35.0,0,0.496,772.8,77.3,1
1314349,10515334044,70.0,133.0,10.0,0,0.486,772.8,77.3,1
1314350,10515342043,60.0,116.0,-13.0,0,0.497,772.8,77.3,1
1314351,10515350043,52.0,100.0,-34.0,0,0.507,772.8,77.3,1
1314352,10515358043,44.0,87.0,-53.0,0,0.514,772.8,77.3,1
1314353,10515366043,36.0,74.0,-69.0,0,0.512,772.8,77.3,1
1314354,10515374043,31.0,64.0,-84.0,0,0.521,772.8,77.3,1
1314355,10515382043,28.0,55.0,-96.0,0,0.513,772.8,77.3,1
1314356,10515390047,24.0,48.0,-107.0,0,0.518,772.8,77.3,1
1314357,10515398043,18.0,40.0,-117.0,0,0.521,772.8,77.3,1
1314358,10515406043,12.0,34.0,-125.0,0,0.515,772.8,77.3,1
1314359,10515414043,10.0,28.0,-133.0,0,0.523,772.8,77.3,1
1314360,10515422043,5.0,22.0,-139.0,0,0.515,772.8,77.3,1
1314361,10515430043,2.0,17.0,-145.0,0,0.52,772.8,77.3,1
1314362,10515438046,0.0,13.0,-150.0,0,0.518,772.8,77.3,3
1314363,10515446046,0.0,10.0,-154.0,0,0.514,772.8,77.3,3
1314364,10515454043,0.0,8.0,-158.0,0,0.517,772.8,77.3,3
1314365,10515462046,0.0,6.0,-160.0,0,0.505,772.8,77.3,3
1314366,10515470046,0.0,4.0,-162.0,0,0.506,772.8,77.3,3
1314367,10515478047,0.0,3.0,-164.0,0,0.507,772.8,77.3,3
1314368,10515486043,0.0,2.0,-165.0,0,0.501,772.8,77.3,3
1314369,10515494046,0.0,2.0,-165.0,1,0.494,772.8,77.3,3
1314370,10515502043,0.0,1.0,-165.0,0,0.493,772.8,77.3,3
1314371,10515510043,0.0,1.0,-165.0,0,0.492,772.8,77.3,3
1314372,10515518043,0.0,1.0,-165.0,0,0.491,772.8,77.3,3
1314373,10515526047,0.0,1.0,-164.0,0,0.495,772.8,77.3,3
1314374,10515534046,0.0,0.0,-164.0,1,0.488,772.8,77.3,3
1314375,10515542043,0.0,0.0,-163.0,0,0.492,772.8,77.3,3
1314376,10515550045,0.0,0.0,-162.0,0,0.49,772.8,77.3,3
1314377,10515558044,0.0,0.0,-161.0,0,0.488,772.8,77.3,3
1314378,10515566046,0.0,0.0,-161.0,1,0.48,772.8,77.3,3
1314379,10515574043,0.0,0.0,-160.0,0,0.485,772.8,77.3,3
1314380,10515582045,0.0,0.0,-159.0,0,0.482,772.8,77.3,3
1314381,10515590046,0.0,0.0,-158.0,0,0.48,772.8,77.3,3
1314382,10515598045,0.0,0.0,-157.0,0,0.478,772.8,77.3,3
1314383,10515606047,0.0,0.0,-156.0,0,0.476,772.8,77.3,3
1314384,10515614043,0.0,0.0,-155.0,0,0.474,772.8,77.3,3
1314385,10515622047,0.0,0.0,-154.0,0,0.473,771.2,77.3,3
1314386,10515630043,0.0,0.0,-153.0,0,0.471,771.2,77.3,3
1314387,10515638043,0.0,0.0,-152.0,0,0.469,771.2,77.3,3
1314388,10515646043,4.0,1.0,-151.0,0,0.468,771.2,77.3,1
1314389,10515654043,13.0,4.0,-149.0,0,0.472,771.2,77.3,1
1314390,10515662045,19.0,8.0,-146.0,0,0.476,771.2,77.3,1
1314391,10515670045,26.0,12.0,-142.0,0,0.479,771.2,77.3,1
1314392,10515678043,32.0,17.0,-138.0,0,0.474,771.2,77.3,1
1314393,10515686043,37.0,22.0,-134.0,0,0.469,771.2,77.3,1
1314394,10515694043,43.0,27.0,-129.0,0,0.471,771.2,77.3,1
1314395,10515702045,49.0,32.0,-123.0,0,0.472,771.2,77.3,1
1314396,10515710043,53.0,37.0,-118.0,0,0.459,771.2,77.3,1
1314397,10515718043,55.0,42.0,-113.0,0,0.453,771.2,77.3,1
1314398,10515726043,60.0,46.0,-107.0,0,0.454,771.2,77.3,1
1314399,10515734044,61.0,50.0,-102.0,0,0.441,771.2,77.3,1
1314400,10515742043,69.0,54.0,-97.0,0,0.435,771.2,77.3,1
1314401,10515750043,69.0,58.0,-93.0,0,0.423,771.2,77.3,1
1314402,10515758043,71.0,61.0,-88.0,0,0.426,771.2,77.3,1
1314403,10515766046,73.0,64.0,-84.0,0,0.414,771.2,77.3,1
1314404,10515774045,76.0,67.0,-80.0,0,0.41,771.2,77.3,1
1314405,10515782043,84.0,71.0,-76.0,0,0.405,771.2,77.3,1
1314406,10515790047,89.0,75.0,-72.0,0,0.401,771.2,77.3,1
1314407,10515798044,90.0,79.0,-68.0,0,0.397,771.2,77.3,1
1314408,10515806043,101.0,84.0,-63.0,0,0.4,771.2,77.3,1
1314409,10515814043,116.0,92.0,-57.0,0,0.401,771.2,77.3,1
1314410,10515822043,135.0,102.0,-50.0,0,0.402,771.2,77.3,1
1314411,10515830045,156.0,115.0,-42.0,0,0.401,771.2,77.3,1
1314412,10515838043,185.0,132.0,-30.0,0,0.421,771.2,77.3,1
1314413,10515846045,227.0,155.0,-16.0,0,0.422,771.2,77.3,1
1314414,10515854043,266.0,182.0,2.0,0,0.464,771.2,77.3,1
1314415,10515862043,316.0,215.0,24.0,0,0.513,771.2,77.3,1
1314416,10515870045,363.0,251.0,50.0,0,0.564,771.2,77.3,1
1314417,10515878047,412.0,290.0,79.0,0,0.612,771.2,77.3,1
1314418,10515886043,464.0,332.0,111.0,0,0.661,771.2,77.3,1
1314419,10515894047,504.0,374.0,146.0,0,0.711,771.2,77.3,1
1314420,10515902047,541.0,414.0,182.0,0,0.752,771.2,77.3,1
1314421,10515910043,576.0,453.0,218.0,0,0.787,771.2,77.3,1
1314422,10515918043,597.0,488.0,254.0,0,0.817,771.2,77.3,1
1314423,10515926047,621.0,520.0,287.0,0,0.829,771.2,77.3,1
1314424,10515934047,636.0,548.0,318.0,0,0.84,771.2,77.3,1
1314425,10515942047,639.0,570.0,346.0,0,0.84,771.2,77.3,1
1314426,10515950043,639.0,587.0,370.0,0,0.829,771.2,77.3,1
1314427,10515958047,635.0,599.0,390.0,0,0.812,771.2,77.3,1
1314428,10515966047,627.0,606.0,405.0,0,0.782,771.2,77.3,1
1314429,10515974043,612.0,607.0,415.0,0,0.748,771.2,77.3,1
1314430,10515982046,596.0,604.0,421.0,0,0.719,771.2,77.3,1
1314431,10515990045,578.0,598.0,422.0,0,0.683,771.2,77.3,1
1314432,10515998047,549.0,586.0,419.0,1,0.693,771.2,77.3,1
1314433,10516006050,529.0,572.0,412.0,0,0.717,771.2,77.3,1
1314434,10516014043,493.0,553.0,401.0,0,0.74,771.2,77.3,1
1314435,10516022044,466.0,532.0,386.0,0,0.76,771.2,77.3,1
1314436,10516030047,426.0,506.0,368.0,0,0.769,771.2,77.3,1
1314437,10516038043,388.0,478.0,346.0,0,0.78,771.2,77.3,1
1314438,10516046047,353.0,447.0,321.0,0,0.778,771.2,77.3,1
1314439,10516054047,309.0,414.0,294.0,0,0.766,771.2,77.3,1
1314440,10516062043,278.0,381.0,264.0,0,0.753,771.2,77.3,1
1314441,10516070046,240.0,347.0,233.0,0,0.726,771.2,77.3,1
1314442,10516078046,204.0,312.0,200.0,0,0.699,771.2,77.3,1
1314443,10516086043,170.0,278.0,167.0,0,0.663,771.2,77.3,1
1314444,10516094046,144.0,245.0,134.0,0,0.625,771.2,77.3,1
1314445,10516102047,119.0,215.0,102.0,0,0.586,771.2,77.3,1
1314446,10516110047,98.0,186.0,71.0,0,0.548,771.2,77.3,1
1314447,10516118043,80.0,161.0,41.0,0,0.513,771.2,77.3,1
1314448,10516126043,66.0,138.0,14.0,0,0.497,771.2,77.3,1
1314449,10516134043,46.0,115.0,-12.0,0,0.517,771.2,77.3,1
1314450,10516142045,38.0,97.0,-36.0,0,0.53,771.2,77.3,1
1314451,10516150043,28.0,80.0,-57.0,0,0.535,771.2,77.3,1
1314452,10516158044,21.0,66.0,-77.0,0,0.55,771.2,77.3,1
1314453,10516166043,19.0,54.0,-93.0,0,0.541,771.2,77.3,1
1314454,10516174043,10.0,44.0,-108.0,0,0.55,771.2,77.3,1
1314455,10516182043,4.0,34.0,-121.0,0,0.55,771.2,77.3,1
1314456,10516190045,0.0,26.0,-132.0,0,0.547,771.2,77.3,3
1314457,10516198047,0.0,20.0,-142.0,0,0.55,771.2,77.3,3
1314458,10516206043,0.0,15.0,-150.0,0,0.543,771.2,77.3,3
1314459,10516214044,0.0,11.0,-156.0,0,0.534,771.2,77.3,3
1314460,10516222043,0.0,8.0,-161.0,0,0.531,771.2,77.3,3
1314461,10516230046,0.0,6.0,-165.0,0,0.528,771.2,77.3,3
1314462,10516238045,0.0,5.0,-168.0,0,0.523,771.2,77.3,3
1314463,10516246043,0.0,4.0,-170.0,0,0.517,776.0,77.3,3
1314464,10516254044,0.0,3.0,-171.0,0,0.511,776.0,77.3,3
1314465,10516262043,0.0,2.0,-172.0,0,0.511,776.0,77.3,3
1314466,10516270046,0.0,2.0,-172.0,1,0.504,776.0,77.3,3
1314467,10516278046,0.0,1.0,-172.0,0,0.503,776.0,77.3,3
1314468,10516286046,0.0,1.0,-172.0,0,0.502,776.0,77.3,3
1314469,10516294045,0.0,1.0,-172.0,0,0.501,776.0,77.3,3
1314470,10516302045,0.0,1.0,-171.0,0,0.505,776.0,77.3,3
1314471,10516310044,0.0,0.0,-170.0,0,0.503,776.0,77.3,3
1314472,10516318047,0.0,0.0,-170.0,1,0.495,776.0,77.3,3
1314473,10516326045,0.0,0.0,-169.0,0,0.5,776.0,77.3,3
1314474,10516334043,0.0,0.0,-168.0,0,0.497,776.0,77.3,3
1314475,10516342046,0.0,0.0,-167.0,0,0.495,776.0,77.3,3
1314476,10516350044,0.0,0.0,-166.0,0,0.493,776.0,77.3,3
1314477,10516358046,0.0,0.0,-165.0,0,0.491,776.0,77.3,3
1314478,10516366047,0.0,0.0,-164.0,0,0.489,776.0,77.3,3
1314479,10516374046,0.0,0.0,-163.0,0,0.487,776.0,77.3,3
1314480,10516382045,0.0,0.0,-162.0,0,0.485,776.0,77.3,3
1314481,10516390045,0.0,0.0,-161.0,0,0.483,776.0,77.3,3
1314482,10516398044,0.0,0.0,-160.0,0,0.481,776.0,77.3,3
1314483,10516406046,0.0,0.0,-159.0,0,0.48,776.0,77.3,3
1314484,10516414045,0.0,0.0,-158.0,0,0.478,776.0,77.3,3
1314485,10516422045,0.0,0.0,-157.0,0,0.476,776.0,77.3,3
1314486,10516430044,0.0,0.0,-156.0,0,0.475,776.0,77.3,3
1314487,10516438044,0.0,0.0,-155.0,0,0.473,776.0,77.3,3
1314488,10516446044,0.0,0.0,-154.0,0,0.472,776.0,77.3,3
1314489,10516454046,0.0,0.0,-153.0,0,0.471,776.0,77.3,3
1314490,10516462043,0.0,0.0,-152.0,0,0.469,776.0,77.3,3
1314491,10516470045,2.0,0.0,-150.0,0,0.474,776.0,77.3,1
1314492,10516478045,9.0,3.0,-149.0,0,0.466,776.0,77.3,1
1314493,10516486047,16.0,6.0,-146.0,0,0.477,776.0,77.3,1
1314494,10516494043,21.0,9.0,-143.0,0,0.473,776.0,77.3,1
1314495,10516502044,29.0,14.0,-140.0,0,0.47,776.0,77.3,1
1314496,10516510043,37.0,20.0,-135.0,0,0.479,776.0,77.3,1
1314497,10516518045,42.0,25.0,-130.0,0,0.474,776.0,77.3,1
1314498,10516526043,51.0,31.0,-125.0,0,0.468,776.0,77.3,1
1314499,10516534043,52.0,36.0,-119.0,0,0.469,776.0,77.3,1
1314500,10516542045,62.0,43.0,-113.0,0,0.463,776.0,77.3,1
1314501,10516550043,66.0,48.0,-107.0,0,0.456,776.0,77.3,1
1314502,10516558043,70.0,54.0,-101.0,0,0.449,777.6,77.3,1
1314503,10516566043,76.0,59.0,-95.0,0,0.443,777.6,77.3,1
1314504,10516574043,79.0,64.0,-89.0,0,0.436,777.6,77.3,1
1314505,10516582045,80.0,68.0,-84.0,0,0.423,777.6,77.3,1
1314506,10516590043,84.0,72.0,-79.0,0,0.418,777.6,77.3,1
1314507,10516598045,85.0,75.0,-74.0,0,0.413,777.6,77.3,1
1314508,10516606043,91.0,79.0,-69.0,0,0.408,777.6,77.3,1
1314509,10516614044,93.0,82.0,-65.0,0,0.396,777.6,77.3,1
1314510,10516622043,96.0,86.0,-61.0,0,0.392,777.6,77.3,1
1314511,10516630043,94.0,88.0,-57.0,0,0.388,777.6,77.3,1
1314512,10516638043,100.0,91.0,-54.0,0,0.378,777.6,77.3,1
1314513,10516646043,101.0,93.0,-50.0,0,0.381,777.6,77.3,1
1314514,10516654043,102.0,95.0,-47.0,0,0.371,777.6,77.3,1
1314515,10516662043,112.0,99.0,-44.0,0,0.368,777.6,77.3,1
1314516,10516670043,121.0,105.0,-40.0,0,0.372,777.6,77.3,1
1314517,10516678043,136.0,112.0,-35.0,0,0.375,777.6,77.3,1
1314518,10516686043,158.0,123.0,-28.0,0,0.383,777.6,77.3,1
1314519,10516694047,184.0,138.0,-19.0,0,0.39,777.6,77.3,1
1314520,10516702043,224.0,159.0,-7.0,0,0.403,777.6,77.3,1
1314521,10516710043,267.0,185.0,10.0,0,0.457,777.6,77.3,1
1314522,10516718043,311.0,216.0,30.0,0,0.498,777.6,77.3,1
1314523,10516726045,365.0,252.0,54.0,0,0.548,777.6,77.3,1
1314524,10516734043,412.0,291.0,83.0,0,0.606,777.6,77.3,1
1314525,10516742043,463.0,332.0,114.0,0,0.65,777.6,77.3,1
1314526,10516750043,503.0,374.0,149.0,0,0.703,777.6,77.3,1
1314527,10516758046,549.0,416.0,185.0,0,0.744,777.6,77.3,1
1314528,10516766046,583.0,457.0,221.0,0,0.778,777.6,77.3,1
1314529,10516774043,613.0,495.0,258.0,0,0.813,777.6,77.3,1
1314530,10516782043,636.0,529.0,293.0,0,0.831,777.6,77.3,1
1314531,10516790043,653.0,559.0,325.0,0,0.839,777.6,77.3,1
1314532,10516798043,659.0,583.0,355.0,0,0.846,777.6,77.3,1
1314533,10516806046,662.0,602.0,381.0,0,0.837,777.6,77.3,1
1314534,10516814046,652.0,614.0,402.0,0,0.815,777.6,77.3,1
1314535,10516822043,650.0,623.0,418.0,0,0.787,777.6,77.3,1
1314536,10516830043,634.0,626.0,430.0,0,0.761,777.6,77.3,1
1314537,10516838047,613.0,623.0,437.0,0,0.726,777.6,77.3,1
1314538,10516846047,594.0,616.0,438.0,0,0.683,777.6,77.3,1
1314539,10516854043,572.0,605.0,436.0,1,0.687,777.6,77.3,1
1314540,10516862043,545.0,591.0,429.0,0,0.717,777.6,77.3,1
1314541,10516870047,515.0,572.0,418.0,0,0.74,780.8,77.3,1
1314542,10516878047,483.0,551.0,404.0,0,0.753,780.8,77.3,1
1314543,10516886044,448.0,526.0,386.0,0,0.77,780.8,77.3,1
1314544,10516894047,408.0,497.0,364.0,0,0.781,780.8,77.3,1
1314545,10516902044,375.0,468.0,340.0,0,0.776,780.8,77.3,1
1314546,10516910044,340.0,437.0,313.0,0,0.772,780.8,77.3,1
1314547,10516918043,297.0,403.0,283.0,0,0.761,780.8,77.3,1
1314548,10516926046,264.0,369.0,253.0,0,0.734,780.8,77.3,1
1314549,10516934046,230.0,335.0,221.0,0,0.712,780.8,77.3,1
1314550,10516942043,200.0,303.0,188.0,0,0.683,780.8,77.3,1
1314551,10516950044,170.0,270.0,156.0,0,0.646,780.8,77.3,1
1314552,10516958044,145.0,240.0,124.0,0,0.613,780.8,77.3,1
1314553,10516966046,116.0,210.0,93.0,0,0.577,780.8,77.3,1
1314554,10516974043,97.0,183.0,62.0,0,0.547,780.8,77.3,1
1314555,10516982044,81.0,158.0,34.0,0,0.507,780.8,77.3,1
1314556,10516990045,63.0,135.0,7.0,0,0.502,780.8,77.3,1
1314557,10516998045,51.0,115.0,-18.0,0,0.514,780.8,77.3,1
1314558,10517006043,42.0,97.0,-41.0,0,0.525,780.8,77.3,1
1314559,10517014044,33.0,81.0,-61.0,0,0.526,780.8,77.3,1
1314560,10517022043,26.0,68.0,-79.0,0,0.531,780.8,77.3,1
1314561,10517030044,20.0,56.0,-95.0,0,0.534,780.8,77.3,1
1314562,10517038043,12.0,46.0,-109.0,0,0.534,780.8,77.3,1
1314563,10517046044,6.0,36.0,-122.0,0,0.54,780.8,77.3,1
1314564,10517054045,0.0,27.0,-133.0,0,0.537,780.8,77.3,3
1314565,10517062045,0.0,21.0,-143.0,0,0.54,780.8,77.3,3
1314566,10517070047,0.0,16.0,-151.0,0,0.533,780.8,77.3,3
1314567,10517078044,0.0,12.0,-157.0,0,0.524,780.8,77.3,3
1314568,10517086043,0.0,9.0,-162.0,0,0.522,780.8,77.3,3
1314569,10517094046,0.0,7.0,-166.0,0,0.518,780.8,77.3,3
1314570,10517102044,0.0,5.0,-169.0,0,0.513,780.8,77.3,3
1314571,10517110047,0.0,4.0,-171.0,0,0.508,780.8,77.3,3
1314572,10517118046,0.0,3.0,-173.0,0,0.509,780.8,77.3,3
1314573,10517126043,0.0,2.0,-174.0,0,0.502,780.8,77.3,3
1314574,10517134042,0.0,2.0,-174.0,1,0.495,780.8,77.3,3
1314575,10517142043,0.0,1.0,-174.0,0,0.494,780.8,77.3,3
1314576,10517150047,0.0,1.0,-174.0,0,0.493,780.8,77.3,3
1314577,10517158043,0.0,1.0,-174.0,0,0.492,780.8,77.3,3
1314578,10517166043,0.0,1.0,-173.0,0,0.497,780.8,77.3,3
1314579,10517174046,0.0,0.0,-172.0,0,0.496,780.8,77.3,3
1314580,10517182043,0.0,0.0,-172.0,1,0.489,792.0,77.3,3
1314581,10517190045,0.0,0.0,-171.0,0,0.494,792.0,77.3,3
1314582,10517198043,0.0,0.0,-170.0,0,0.492,792.0,77.3,3
1314583,10517206045,0.0,0.0,-169.0,0,0.491,792.0,77.3,3
1314584,10517214043,0.0,0.0,-168.0,0,0.489,792.0,77.3,3
1314585,10517222045,0.0,0.0,-167.0,0,0.488,792.0,77.3,3
1314586,10517230044,0.0,0.0,-166.0,0,0.487,792.0,77.3,3
1314587,10517238045,0.0,0.0,-165.0,0,0.485,792.0,77.3,3
1314588,10517246044,0.0,0.0,-164.0,0,0.484,792.0,77.3,3
1314589,10517254045,0.0,0.0,-163.0,0,0.483,792.0,77.3,3
1314590,10517262046,0.0,0.0,-162.0,0,0.482,792.0,77.3,3
1314591,10517270045,0.0,0.0,-161.0,0,0.481,792.0,77.3,3
1314592,10517278043,0.0,0.0,-160.0,0,0.479,792.0,77.3,3
1314593,10517286044,0.0,0.0,-159.0,0,0.478,792.0,77.3,3
1314594,10517294043,0.0,0.0,-158.0,0,0.477,792.0,77.3,3
1314595,10517302045,0.0,0.0,-157.0,0,0.476,792.0,77.3,3
1314596,10517310043,0.0,0.0,-156.0,0,0.475,792.0,77.3,3
1314597,10517318043,0.0,0.0,-154.0,0,0.48,792.0,77.3,3
1314598,10517326045,3.0,1.0,-153.0,0,0.472,792.0,77.3,1
1314599,10517334043,7.0,2.0,-152.0,0,0.471,792.0,77.3,1
1314600,10517342046,16.0,6.0,-149.0,0,0.481,792.0,77.3,1
1314601,10517350043,17.0,8.0,-147.0,0,0.472,792.0,77.3,1
1314602,10517358044,24.0,12.0,-143.0,0,0.482,792.0,77.3,1
1314603,10517366043,28.0,16.0,-140.0,0,0.472,792.0,77.3,1
1314604,10517374043,37.0,21.0,-135.0,0,0.481,792.0,77.3,1
1314605,10517382044,44.0,27.0,-130.0,0,0.475,792.0,77.3,1
1314606,10517390043,49.0,32.0,-125.0,0,0.47,792.0,77.3,1
1314607,10517398043,52.0,37.0,-120.0,0,0.465,792.0,77.3,1
1314608,10517406043,57.0,42.0,-114.0,0,0.466,792.0,77.3,1
1314609,10517414045,61.0,46.0,-109.0,0,0.453,792.0,77.3,1
1314610,10517422043,68.0,52.0,-103.0,0,0.454,792.0,77.3,1
1314611,10517430043,72.0,57.0,-98.0,0,0.442,792.0,77.3,1
1314612,10517438044,71.0,60.0,-93.0,0,0.437,792.0,77.3,1
1314613,10517446043,76.0,64.0,-88.0,0,0.431,792.0,77.3,1
1314614,10517454043,81.0,68.0,-83.0,0,0.426,792.0,77.3,1
1314615,10517462045,84.0,72.0,-78.0,0,0.421,792.0,77.3,1
1314616,10517470045,84.0,75.0,-74.0,0,0.41,792.0,77.3,1
1314617,10517478043,89.0,78.0,-70.0,0,0.406,792.0,77.3,1
1314618,10517486043,91.0,81.0,-66.0,0,0.402,792.0,77.3,1
1314619,10517494043,92.0,84.0,-62.0,0,0.398,792.0,77.3,1
1314620,10517502043,92.0,86.0,-59.0,0,0.388,792.0,77.3,1
1314621,10517510043,95.0,88.0,-56.0,0,0.385,792.0,77.3,1
1314622,10517518043,98.0,91.0,-53.0,0,0.382,792.0,77.3,1
1314623,10517526047,94.0,91.0,-51.0,0,0.373,792.0,77.3,1
1314624,10517534044,97.0,93.0,-48.0,0,0.377,792.0,77.3,1
1314625,10517542043,102.0,95.0,-46.0,0,0.368,792.0,77.3,1
1314626,10517550043,106.0,98.0,-44.0,0,0.366,792.0,77.3,1
1314627,10517558045,114.0,102.0,-41.0,0,0.37,792.0,77.3,1
1314628,10517566047,127.0,108.0,-37.0,0,0.374,792.0,77.3,1
1314629,10517574046,145.0,117.0,-31.0,0,0.382,792.0,77.3,1
1314630,10517582043,172.0,130.0,-24.0,0,0.383,792.0,77.3,1
1314631,10517590045,206.0,149.0,-13.0,0,0.403,792.0,77.3,1
1314632,10517598043,247.0,172.0,1.0,0,0.416,792.0,77.3,1
1314633,10517606043,293.0,202.0,20.0,0,0.469,792.0,77.3,1
1314634,10517614043,340.0,235.0,43.0,0,0.517,792.0,77.3,1
1314635,10517622043,390.0,273.0,69.0,0,0.56,792.0,77.3,1
1314636,10517630043,436.0,312.0,99.0,0,0.611,792.0,77.3,1
1314637,10517638046,484.0,354.0,132.0,0,0.659,792.0,77.3,1
1314638,10517646043,529.0,396.0,167.0,0,0.703,792.0,77.3,1
1314639,10517654043,560.0,436.0,203.0,0,0.742,792.0,77.3,1
1314640,10517662047,595.0,475.0,239.0,0,0.775,792.0,77.3,1
1314641,10517670047,620.0,510.0,274.0,0,0.801,792.0,77.3,1
1314642,10517678043,636.0,540.0,307.0,0,0.817,792.0,77.3,1
1314643,10517686047,647.0,566.0,338.0,0,0.829,792.0,77.3,1
1314644,10517694047,650.0,587.0,364.0,0,0.82,792.0,77.3,1
1314645,10517702043,649.0,602.0,387.0,0,0.814,792.0,77.3,1
1314646,10517710043,646.0,612.0,405.0,0,0.79,792.0,77.3,1
1314647,10517718043,627.0,616.0,418.0,0,0.76,792.0,77.3,1
1314648,10517726043,613.0,615.0,426.0,0,0.726,792.0,77.3,1
1314649,10517734047,589.0,609.0,430.0,0,0.698,792.0,77.3,1
1314650,10517742047,566.0,598.0,428.0,1,0.683,792.0,77.3,1
1314651,10517750043,539.0,584.0,422.0,0,0.709,792.0,77.3,1
1314652,10517758043,508.0,566.0,412.0,0,0.734,792.0,77.3,1
1314653,10517766043,480.0,545.0,398.0,0,0.757,792.0,77.3,1
1314654,10517774043,446.0,521.0,381.0,0,0.77,792.0,77.3,1
1314655,10517782043,413.0,495.0,360.0,0,0.785,792.0,77.3,1
1314656,10517790047,376.0,466.0,337.0,0,0.783,792.0,77.3,1
1314657,10517798044,334.0,434.0,311.0,0,0.782,792.0,77.3,1
1314658,10517806047,300.0,401.0,282.0,0,0.775,795.2,77.3,1
1314659,10517814043,263.0,368.0,252.0,0,0.755,795.2,77.3,1
1314660,10517822044,229.0,334.0,220.0,0,0.734,795.2,77.3,1
1314661,10517830043,197.0,301.0,188.0,0,0.703,795.2,77.3,1
1314662,10517838047,166.0,268.0,156.0,0,0.67,795.2,77.3,1
1314663,10517846043,144.0,238.0,124.0,0,0.637,795.2,77.3,1
1314664,10517854047,119.0,209.0,93.0,0,0.6,795.2,77.3,1
1314665,10517862046,100.0,183.0,63.0,0,0.564,795.2,77.3,1
1314666,10517870043,86.0,159.0,35.0,0,0.527,795.2,77.3,1
1314667,10517878043,75.0,139.0,9.0,0,0.493,795.2,77.3,1
1314668,10517886043,67.0,121.0,-14.0,0,0.487,795.2,77.3,1
1314669,10517894046,53.0,105.0,-35.0,0,0.495,795.2,77.3,1
1314670,10517902047,49.0,91.0,-54.0,0,0.502,795.2,77.3,1
1314671,10517910044,36.0,78.0,-71.0,0,0.506,795.2,77.3,1
1314672,10517918043,31.0,67.0,-86.0,0,0.507,795.2,77.3,1
1314673,10517926043,30.0,58.0,-99.0,0,0.507,795.2,77.3,1
1314674,10517934043,22.0,49.0,-111.0,0,0.512,795.2,77.3,1
1314675,10517942043,13.0,40.0,-121.0,0,0.508,795.2,77.3,1
1314676,10517950047,11.0,33.0,-130.0,0,0.51,795.2,77.3,1
1314677,10517958043,4.0,26.0,-139.0,0,0.52,795.2,77.3,1
1314678,10517966043,0.0,20.0,-146.0,0,0.512,795.2,77.3,3
1314679,10517974043,0.0,15.0,-152.0,0,0.511,795.2,77.3,3
1314680,10517982043,0.0,11.0,-158.0,0,0.517,795.2,77.3,3
1314681,10517990047,0.0,9.0,-162.0,0,0.507,795.2,77.3,3
1314682,10517998046,0.0,7.0,-165.0,0,0.503,795.2,77.3,3
1314683,10518006043,0.0,5.0,-168.0,0,0.506,795.2,77.3,3
1314684,10518014046,0.0,4.0,-169.0,0,0.493,795.2,77.3,3
1314685,10518022043,0.0,3.0,-171.0,0,0.502,795.2,77.3,3
1314686,10518030045,0.0,2.0,-171.0,1,0.489,795.2,77.3,3
1314687,10518038043,0.0,2.0,-172.0,0,0.496,795.2,77.3,3
1314688,10518046043,0.0,1.0,-172.0,1,0.49,795.2,77.3,3
1314689,10518054043,0.0,1.0,-171.0,0,0.495,795.2,77.3,3
1314690,10518062045,0.0,1.0,-171.0,1,0.488,795.2,77.3,3
1314691,10518070047,0.0,1.0,-170.0,0,0.494,795.2,77.3,3
1314692,10518078043,0.0,0.0,-170.0,1,0.487,795.2,77.3,3
1314693,10518086043,0.0,0.0,-169.0,0,0.493,795.2,77.3,3
1314694,10518094045,0.0,0.0,-168.0,0,0.492,795.2,77.3,3
1314695,10518102045,0.0,0.0,-167.0,0,0.491,795.2,77.3,3
1314696,10518110045,0.0,0.0,-166.0,0,0.49,795.2,77.3,3
1314697,10518118047,0.0,0.0,-165.0,0,0.489,798.4,77.3,3
1314698,10518126043,0.0,0.0,-164.0,0,0.488,798.4,77.3,3
1314699,10518134043,0.0,0.0,-163.0,0,0.487,798.4,77.3,3
1314700,10518142047,0.0,0.0,-162.0,0,0.486,798.4,77.3,3
1314701,10518150047,0.0,0.0,-161.0,0,0.484,798.4,77.3,3
1314702,10518158043,0.0,0.0,-160.0,0,0.483,798.4,77.3,3
1314703,10518166044,0.0,0.0,-159.0,0,0.482,798.4,77.3,3
1314704,10518174046,0.0,0.0,-158.0,0,0.481,798.4,77.3,3
1314705,10518182046,0.0,0.0,-157.0,0,0.48,798.4,77.3,3
1314706,10518190043,0.0,0.0,-156.0,0,0.479,798.4,77.3,3
1314707,10518198044,0.0,0.0,-155.0,0,0.478,798.4,77.3,3
1314708,10518206043,8.0,2.0,-153.0,0,0.483,798.4,77.3,1
1314709,10518214045,12.0,4.0,-151.0,0,0.481,798.4,77.3,1
1314710,10518222043,17.0,7.0,-149.0,0,0.479,798.4,77.3,1
1314711,10518230044,27.0,12.0,-145.0,0,0.488,798.4,77.3,1
1314712,10518238043,34.0,17.0,-141.0,0,0.484,798.4,77.3,1
1314713,10518246043,40.0,23.0,-136.0,0,0.486,798.4,77.3,1
1314714,10518254043,40.0,27.0,-131.0,0,0.481,798.4,77.3,1
1314715,10518262043,46.0,32.0,-126.0,0,0.475,798.4,77.3,1
1314716,10518270047,51.0,36.0,-121.0,0,0.47,798.4,77.3,1
1314717,10518278043,53.0,40.0,-116.0,0,0.465,798.4,77.3,1
1314718,10518286043,64.0,46.0,-111.0,0,0.459,798.4,77.3,1
1314719,10518294043,67.0,51.0,-105.0,0,0.46,798.4,77.3,1
1314720,10518302043,71.0,56.0,-100.0,0,0.447,798.4,77.3,1
1314721,10518310043,74.0,60.0,-94.0,0,0.448,798.4,77.3,1
1314722,10518318045,80.0,65.0,-89.0,0,0.436,798.4,77.3,1
1314723,10518326046,81.0,69.0,-84.0,0,0.431,798.4,77.3,1
1314724,10518334044,83.0,72.0,-79.0,0,0.425,798.4,77.3,1
1314725,10518342044,87.0,76.0,-75.0,0,0.414,798.4,77.3,1
1314726,10518350043,93.0,80.0,-71.0,0,0.41,798.4,77.3,1
1314727,10518358043,93.0,83.0,-66.0,0,0.412,798.4,77.3,1
1314728,10518366045,99.0,87.0,-62.0,0,0.401,798.4,77.3,1
1314729,10518374043,95.0,89.0,-58.0,0,0.396,798.4,77.3,1
1314730,10518382043,96.0,91.0,-55.0,0,0.386,798.4,77.3,1
1314731,10518390047,100.0,93.0,-52.0,0,0.383,798.4,77.3,1
1314732,10518398043,103.0,95.0,-49.0,0,0.38,798.4,77.3,1
1314733,10518406043,107.0,98.0,-46.0,0,0.377,798.4,77.3,1
1314734,10518414043,105.0,100.0,-44.0,0,0.368,798.4,77.3,1
1314735,10518422043,112.0,103.0,-41.0,0,0.372,798.4,77.3,1
1314736,10518430043,121.0,107.0,-38.0,0,0.369,798.4,77.3,1
1314737,10518438043,136.0,114.0,-33.0,0,0.378,798.4,77.3,1
1314738,10518446047,156.0,124.0,-27.0,0,0.38,798.4,77.3,1
1314739,10518454043,177.0,137.0,-19.0,0,0.387,798.4,77.3,1
1314740,10518462044,212.0,155.0,-8.0,0,0.4,798.4,77.3,1
1314741,10518470043,251.0,178.0,6.0,0,0.423,798.4,77.3,1
1314742,10518478043,296.0,207.0,24.0,0,0.47,798.4,77.3,1
1314743,10518486046,336.0,238.0,46.0,0,0.52,798.4,77.3,1
1314744,10518494043,382.0,273.0,71.0,0,0.565,798.4,77.3,1
1314745,10518502043,428.0,311.0,100.0,0,0.617,798.4,77.3,1
1314746,10518510046,472.0,350.0,131.0,0,0.661,798.4,77.3,1
1314747,10518518043,506.0,388.0,163.0,0,0.7,798.4,77.3,1
1314748,10518526045,543.0,425.0,197.0,0,0.743,798.4,77.3,1
1314749,10518534046,571.0,461.0,230.0,0,0.772,798.4,77.3,1
1314750,10518542044,589.0,492.0,262.0,0,0.797,798.4,77.3,1
1314751,10518550045,604.0,519.0,292.0,0,0.812,798.4,77.3,1
1314752,10518558044,610.0,541.0,319.0,0,0.816,798.4,77.3,1
1314753,10518566045,615.0,559.0,343.0,0,0.814,798.4,77.3,1
1314754,10518574043,611.0,572.0,363.0,0,0.801,798.4,77.3,1
1314755,10518582047,603.0,579.0,378.0,0,0.773,798.4,77.3,1
1314756,10518590043,591.0,582.0,389.0,0,0.748,798.4,77.3,1
1314757,10518598043,577.0,581.0,396.0,0,0.721,798.4,77.3,1
1314758,10518606043,557.0,575.0,398.0,0,0.685,798.4,77.3,1
1314759,10518614045,532.0,565.0,396.0,1,0.684,798.4,77.3,1
1314760,10518622043,506.0,550.0,390.0,0,0.71,798.4,77.3,1
1314761,10518630047,479.0,533.0,380.0,0,0.736,798.4,77.3,1
1314762,10518638047,447.0,512.0,366.0,0,0.759,798.4,77.3,1
1314763,10518646044,411.0,488.0,349.0,0,0.772,798.4,77.3,1
1314764,10518654046,373.0,460.0,328.0,0,0.786,798.4,77.3,1
1314765,10518662045,339.0,431.0,304.0,0,0.788,798.4,77.3,1
1314766,10518670047,304.0,400.0,278.0,0,0.779,798.4,77.3,1
1314767,10518678047,264.0,367.0,250.0,0,0.766,798.4,77.3,1
1314768,10518686043,232.0,334.0,220.0,0,0.747,798.4,77.3,1
1314769,10518694046,199.0,301.0,189.0,0,0.72,798.4,77.3,1
1314770,10518702047,167.0,269.0,157.0,0,0.689,798.4,77.3,1
1314771,10518710045,144.0,239.0,126.0,0,0.651,798.4,77.3,1
1314772,10518718044,119.0,210.0,95.0,0,0.617,798.4,77.3,1
1314773,10518726043,99.0,183.0,66.0,0,0.576,798.4,77.3,1
1314774,10518734047,84.0,159.0,38.0,0,0.542,798.4,77.3,1
1314775,10518742043,71.0,138.0,12.0,0,0.505,796.8,77.3,1
1314776,10518750043,61.0,119.0,-12.0,0,0.494,796.8,77.3,1
1314777,10518758043,51.0,103.0,-33.0,0,0.497,796.8,77.3,1
1314778,10518766046,44.0,88.0,-52.0,0,0.503,796.8,77.3,1
1314779,10518774044,38.0,76.0,-69.0,0,0.507,796.8,77.3,1
1314780,10518782047,34.0,66.0,-84.0,0,0.509,796.8,77.3,1
1314781,10518790043,31.0,57.0,-97.0,0,0.508,796.8,77.3,1
1314782,10518798044,26.0,50.0,-108.0,0,0.505,796.8,77.3,1
1314783,10518806045,21.0,43.0,-118.0,0,0.509,796.8,77.3,1
1314784,10518814043,19.0,37.0,-126.0,0,0.503,796.8,77.3,1
1314785,10518822044,15.0,32.0,-133.0,0,0.503,796.8,77.3,1
1314786,10518830043,10.0,26.0,-139.0,0,0.502,796.8,77.3,1
1314787,10518838043,4.0,21.0,-145.0,0,0.509,796.8,77.3,1
1314788,10518846046,6.0,17.0,-150.0,0,0.507,796.8,77.3,1
1314789,10518854043,0.0,13.0,-154.0,0,0.504,796.8,77.3,3
1314790,10518862044,0.0,10.0,-158.0,0,0.508,796.8,77.3,3
1314791,10518870043,0.0,8.0,-161.0,0,0.504,796.8,77.3,3
1314792,10518878045,0.0,6.0,-163.0,0,0.499,796.8,77.3,3
1314793,10518886043,0.0,4.0,-165.0,0,0.501,796.8,77.3,3
1314794,10518894045,0.0,3.0,-166.0,0,0.496,796.8,77.3,3
1314795,10518902046,0.0,2.0,-167.0,0,0.497,796.8,77.3,3
1314796,10518910046,0.0,2.0,-167.0,1,0.49,796.8,77.3,3
1314797,10518918047,0.0,1.0,-167.0,0,0.49,796.8,77.3,3
1314798,10518926045,0.0,1.0,-167.0,0,0.49,796.8,77.3,3
1314799,10518934045,0.0,1.0,-167.0,0,0.49,796.8,77.3,3
1314800,10518942045,0.0,1.0,-166.0,0,0.496,796.8,77.3,3
1314801,10518950045,0.0,0.0,-166.0,1,0.489,796.8,77.3,3
1314802,10518958043,0.0,0.0,-165.0,0,0.494,796.8,77.3,3
1314803,10518966047,0.0,0.0,-164.0,0,0.493,796.8,77.3,3
1314804,10518974044,0.0,0.0,-163.0,0,0.492,796.8,77.3,3
1314805,10518982047,0.0,0.0,-163.0,1,0.486,796.8,77.3,3
1314806,10518990043,0.0,0.0,-162.0,0,0.491,796.8,77.3,3
1314807,10518998043,0.0,0.0,-161.0,0,0.49,796.8,77.3,3
1314808,10519006043,0.0,0.0,-160.0,0,0.489,796.8,77.3,3
1314809,10519014043,0.0,0.0,-159.0,0,0.488,796.8,77.3,3
1314810,10519022043,0.0,0.0,-158.0,0,0.487,796.8,77.3,3
1314811,10519030043,0.0,0.0,-157.0,0,0.486,796.8,77.3,3
1314812,10519038045,6.0,1.0,-155.0,0,0.49,796.8,77.3,1
1314813,10519046044,12.0,4.0,-153.0,0,0.488,796.8,77.3,1
1314814,10519054043,15.0,7.0,-151.0,0,0.486,795.2,77.3,1
1314815,10519062043,20.0,10.0,-148.0,0,0.49,795.2,77.3,1
1314816,10519070043,26.0,14.0,-144.0,0,0.493,795.2,77.3,1
1314817,10519078044,29.0,17.0,-140.0,0,0.488,795.2,77.3,1
1314818,10519086045,37.0,22.0,-136.0,0,0.484,795.2,77.3,1
1314819,10519094043,43.0,27.0,-131.0,0,0.486,795.2,77.3,1
1314820,10519102043,48.0,32.0,-126.0,0,0.48,795.2,77.3,1
1314821,10519110045,58.0,39.0,-121.0,0,0.475,795.2,77.3,1
1314822,10519118043,60.0,44.0,-115.0,0,0.476,795.2,77.3,1
1314823,10519126043,64.0,49.0,-110.0,0,0.463,795.2,77.3,1
1314824,10519134044,66.0,53.0,-104.0,0,0.464,795.2,77.3,1
1314825,10519142043,73.0,58.0,-99.0,0,0.451,795.2,77.3,1
1314826,10519150043,73.0,61.0,-94.0,0,0.445,795.2,77.3,1
1314827,10519158045,76.0,65.0,-89.0,0,0.44,795.2,77.3,1
1314828,10519166043,84.0,70.0,-84.0,0,0.434,795.2,77.3,1
1314829,10519174044,83.0,73.0,-79.0,0,0.429,795.2,77.3,1
1314830,10519182044,90.0,77.0,-75.0,0,0.417,795.2,77.3,1
1314831,10519190043,93.0,81.0,-70.0,0,0.419,795.2,77.3,1
1314832,10519198043,91.0,83.0,-66.0,0,0.408,795.2,77.3,1
1314833,10519206045,96.0,86.0,-63.0,0,0.397,795.2,77.3,1
1314834,10519214043,92.0,88.0,-59.0,0,0.4,795.2,77.3,1
1314835,10519222045,94.0,89.0,-57.0,0,0.384,795.2,77.3,1
1314836,10519230045,96.0,91.0,-54.0,0,0.388,795.2,77.3,1
1314837,10519238044,95.0,92.0,-52.0,0,0.378,795.2,77.3,1
1314838,10519246043,100.0,94.0,-49.0,0,0.382,795.2,77.3,1
1314839,10519254044,100.0,95.0,-47.0,0,0.373,795.2,77.3,1
1314840,10519262043,110.0,99.0,-45.0,0,0.371,795.2,77.3,1
1314841,10519270045,113.0,102.0,-42.0,0,0.375,795.2,77.3,1
1314842,10519278043,127.0,108.0,-38.0,0,0.378,795.2,77.3,1
1314843,10519286043,144.0,117.0,-33.0,0,0.38,795.2,77.3,1
1314844,10519294043,170.0,130.0,-25.0,0,0.395,795.2,77.3,1
1314845,10519302043,205.0,148.0,-15.0,0,0.401,795.2,77.3,1
1314846,10519310043,240.0,170.0,-1.0,0,0.418,795.2,77.3,1
1314847,10519318043,282.0,197.0,16.0,0,0.455,795.2,77.3,1
1314848,10519326043,330.0,230.0,38.0,0,0.511,795.2,77.3,1
1314849,10519334044,374.0,265.0,63.0,0,0.556,795.2,77.3,1
1314850,10519342043,426.0,304.0,92.0,0,0.609,795.2,77.3,1
1314851,10519350043,466.0,343.0,123.0,0,0.653,795.2,77.3,1
1314852,10519358043,503.0,382.0,156.0,0,0.698,795.2,77.3,1
1314853,10519366043,544.0,421.0,191.0,0,0.742,795.2,77.3,1
1314854,10519374043,574.0,458.0,225.0,0,0.773,795.2,77.3,1
1314855,10519382043,597.0,492.0,259.0,0,0.804,795.2,77.3,1
1314856,10519390043,619.0,523.0,291.0,0,0.822,795.2,77.3,1
1314857,10519398043,625.0,547.0,320.0,0,0.83,795.2,77.3,1
1314858,10519406043,634.0,568.0,346.0,0,0.831,795.2,77.3,1
1314859,10519414043,636.0,585.0,369.0,0,0.826,795.2,77.3,1
1314860,10519422043,627.0,595.0,387.0,0,0.802,795.2,77.3,1
1314861,10519430045,612.0,599.0,400.0,0,0.771,795.2,77.3,1
1314862,10519438043,603.0,600.0,409.0,0,0.744,795.2,77.3,1
1314863,10519446043,580.0,595.0,414.0,0,0.715,795.2,77.3,1
1314864,10519454046,564.0,588.0,414.0,1,0.68,795.2,77.3,1
1314865,10519462043,538.0,576.0,409.0,0,0.713,795.2,77.3,1
1314866,10519470046,508.0,559.0,401.0,0,0.733,795.2,77.3,1
1314867,10519478047,476.0,539.0,389.0,0,0.759,795.2,77.3,1
1314868,10519486044,445.0,516.0,373.0,0,0.781,795.2,77.3,1
1314869,10519494047,414.0,491.0,353.0,0,0.799,795.2,77.3,1
1314870,10519502043,376.0,463.0,331.0,0,0.799,795.2,77.3,1
1314871,10519510045,340.0,434.0,306.0,0,0.8,795.2,77.3,1
1314872,10519518046,305.0,402.0,279.0,0,0.79,795.2,77.3,1
1314873,10519526047,272.0,371.0,251.0,0,0.772,795.2,77.3,1
1314874,10519534046,234.0,338.0,220.0,0,0.756,795.2,77.3,1
1314875,10519542047,204.0,305.0,189.0,0,0.725,795.2,77.3,1
1314876,10519550043,173.0,273.0,158.0,0,0.691,795.2,77.3,1
1314877,10519558047,147.0,243.0,127.0,0,0.657,795.2,77.3,1
1314878,10519566047,127.0,215.0,96.0,0,0.621,808.0,75.8,1
1314879,10519574044,108.0,189.0,67.0,0,0.58,808.0,75.8,1
1314880,10519582047,89.0,165.0,39.0,0,0.546,808.0,75.8,1
1314881,10519590043,78.0,144.0,14.0,0,0.505,808.0,75.8,1
1314882,10519598043,63.0,124.0,-10.0,0,0.495,808.0,75.8,1
1314883,10519606046,58.0,108.0,-31.0,0,0.497,808.0,75.8,1
1314884,10519614044,45.0,93.0,-51.0,0,0.512,808.0,75.8,1
1314885,10519622044,41.0,80.0,-68.0,0,0.509,808.0,75.8,1
1314886,10519630043,34.0,69.0,-83.0,0,0.511,808.0,75.8,1
1314887,10519638045,31.0,60.0,-97.0,0,0.519,808.0,75.8,1
1314888,10519646043,25.0,51.0,-108.0,0,0.509,808.0,75.8,1
1314889,10519654046,16.0,43.0,-119.0,0,0.521,808.0,75.8,1
1314890,10519662047,13.0,36.0,-128.0,0,0.516,808.0,75.8,1
1314891,10519670047,10.0,29.0,-136.0,0,0.517,808.0,75.8,1
1314892,10519678046,1.0,22.0,-144.0,0,0.526,803.2,75.8,1
1314893,10519686043,0.0,17.0,-150.0,0,0.518,803.2,75.8,3
1314894,10519694046,0.0,13.0,-156.0,0,0.524,803.2,75.8,3
1314895,10519702043,0.0,10.0,-160.0,0,0.514,803.2,75.8,3
1314896,10519710043,0.0,7.0,-164.0,0,0.518,803.2,75.8,3
1314897,10519718045,0.0,6.0,-167.0,0,0.514,803.2,75.8,3
1314898,10519726043,0.0,4.0,-169.0,0,0.509,803.2,75.8,3
1314899,10519734043,0.0,3.0,-170.0,0,0.503,803.2,75.8,3
1314900,10519742043,0.0,2.0,-171.0,0,0.504,803.2,75.8,3
1314901,10519750044,0.0,2.0,-171.0,1,0.497,803.2,75.8,3
1314902,10519758045,0.0,1.0,-172.0,0,0.505,803.2,75.8,3
1314903,10519766045,0.0,1.0,-171.0,1,0.504,803.2,75.8,3
1314904,10519774043,0.0,1.0,-171.0,1,0.497,803.2,75.8,3
1314905,10519782043,0.0,1.0,-171.0,0,0.497,803.2,75.8,3
1314906,10519790045,0.0,0.0,-170.0,0,0.503,803.2,75.8,3
1314907,10519798044,0.0,0.0,-169.0,0,0.502,803.2,75.8,3
1314908,10519806046,0.0,0.0,-168.0,0,0.501,803.2,75.8,3
1314909,10519814044,0.0,0.0,-168.0,1,0.494,803.2,75.8,3
1314910,10519822043,0.0,0.0,-167.0,0,0.5,803.2,75.8,3
1314911,10519830047,0.0,0.0,-166.0,0,0.499,803.2,75.8,3
1314912,10519838045,0.0,0.0,-165.0,0,0.497,803.2,75.8,3
1314913,10519846047,0.0,0.0,-164.0,0,0.496,803.2,75.8,3
1314914,10519854045,0.0,0.0,-163.0,0,0.495,803.2,75.8,3
1314915,10519862044,0.0,0.0,-162.0,0,0.494,803.2,75.8,3
1314916,10519870043,0.0,0.0,-161.0,0,0.493,803.2,75.8,3
1314917,10519878043,0.0,0.0,-160.0,0,0.492,803.2,75.8,3
1314918,10519886043,0.0,0.0,-158.0,0,0.497,803.2,75.8,3
1314919,10519894043,0.0,0.0,-157.0,0,0.489,803.2,75.8,3
1314920,10519902043,0.0,0.0,-156.0,0,0.487,803.2,75.8,3
1314921,10519910047,0.0,0.0,-155.0,0,0.486,803.2,75.8,3
1314922,10519918047,0.0,0.0,-154.0,0,0.485,803.2,75.8,3
1314923,10519926045,7.0,2.0,-153.0,0,0.484,803.2,75.8,1
1314924,10519934046,10.0,4.0,-151.0,0,0.489,803.2,75.8,1
1314925,10519942045,16.0,7.0,-148.0,0,0.493,803.2,75.8,1
1314926,10519950043,22.0,10.0,-145.0,0,0.489,803.2,75.8,1
1314927,10519958043,31.0,15.0,-141.0,0,0.492,803.2,75.8,1
1314928,10519966043,36.0,20.0,-137.0,0,0.488,803.2,75.8,1
1314929,10519974045,37.0,24.0,-132.0,0,0.49,803.2,75.8,1
1314930,10519982046,44.0,29.0,-128.0,0,0.478,803.2,75.8,1
1314931,10519990045,46.0,33.0,-123.0,0,0.479,803.2,75.8,1
1314932,10519998046,53.0,38.0,-118.0,0,0.474,803.2,75.8,1
1314933,10520006043,59.0,43.0,-113.0,0,0.468,803.2,75.8,1
1314934,10520014043,66.0,49.0,-107.0,0,0.469,803.2,75.8,1
1314935,10520022045,68.0,53.0,-102.0,0,0.456,803.2,75.8,1
1314936,10520030044,73.0,58.0,-96.0,0,0.456,803.2,75.8,1
1314937,10520038043,76.0,62.0,-91.0,0,0.443,803.2,75.8,1
1314938,10520046044,79.0,66.0,-86.0,0,0.438,803.2,75.8,1
1314939,10520054043,80.0,70.0,-81.0,0,0.432,803.2,75.8,1
1314940,10520062044,84.0,73.0,-77.0,0,0.42,803.2,75.8,1
1314941,10520070043,85.0,76.0,-73.0,0,0.416,803.2,75.8,1
1314942,10520078044,90.0,79.0,-69.0,0,0.411,803.2,75.8,1
1314943,10520086045,93.0,83.0,-65.0,0,0.407,803.2,75.8,1
1314944,10520094043,92.0,85.0,-61.0,0,0.403,803.2,75.8,1
1314945,10520102046,100.0,89.0,-58.0,0,0.392,803.2,75.8,1
1314946,10520110043,102.0,92.0,-54.0,0,0.395,803.2,75.8,1
1314947,10520118044,111.0,97.0,-50.0,0,0.391,803.2,75.8,1
1314948,10520126043,127.0,104.0,-45.0,0,0.393,803.2,75.8,1
1314949,10520134044,148.0,115.0,-38.0,0,0.401,803.2,75.8,1
1314950,10520142046,177.0,130.0,-29.0,0,0.407,803.2,75.8,1
1314951,10520150043,207.0,148.0,-17.0,0,0.418,803.2,75.8,1
1314952,10520158043,245.0,172.0,-2.0,0,0.427,803.2,75.8,1
1314953,10520166045,291.0,201.0,17.0,0,0.468,803.2,75.8,1
1314954,10520174043,336.0,234.0,39.0,0,0.509,803.2,75.8,1
1314955,10520182043,383.0,270.0,66.0,0,0.565,803.2,75.8,1
1314956,10520190043,432.0,309.0,95.0,0,0.607,803.2,75.8,1
1314957,10520198043,473.0,349.0,128.0,0,0.66,803.2,75.8,1
1314958,10520206043,516.0,389.0,162.0,0,0.7,803.2,75.8,1
1314959,10520214045,551.0,429.0,197.0,0,0.74,803.2,75.8,1
1314960,10520222043,578.0,465.0,231.0,0,0.77,803.2,75.8,1
1314961,10520230045,601.0,498.0,265.0,0,0.8,803.2,75.8,1
1314962,10520238043,616.0,526.0,296.0,0,0.813,803.2,75.8,1
1314963,10520246044,624.0,550.0,325.0,0,0.824,803.2,75.8,1
1314964,10520254043,627.0,569.0,350.0,0,0.819,803.2,75.8,1
1314965,10520262043,628.0,583.0,371.0,0,0.807,803.2,75.8,1
1314966,10520270043,615.0,591.0,387.0,0,0.781,803.2,75.8,1
1314967,10520278043,598.0,593.0,399.0,0,0.756,803.2,75.8,1
1314968,10520286046,585.0,591.0,406.0,0,0.721,803.2,75.8,1
1314969,10520294044,562.0,584.0,408.0,0,0.684,803.2,75.8,1
1314970,10520302043,539.0,573.0,405.0,1,0.69,803.2,75.8,1
1314971,10520310043,503.0,556.0,398.0,0,0.718,803.2,75.8,1
1314972,10520318047,476.0,537.0,387.0,0,0.744,803.2,75.8,1
1314973,10520326045,448.0,515.0,372.0,0,0.767,803.2,75.8,1
1314974,10520334046,406.0,489.0,353.0,0,0.786,803.2,75.8,1
1314975,10520342046,374.0,461.0,331.0,0,0.793,803.2,75.8,1
1314976,10520350043,336.0,431.0,306.0,0,0.794,803.2,75.8,1
1314977,10520358045,304.0,400.0,279.0,0,0.785,803.2,75.8,1
1314978,10520366043,267.0,368.0,251.0,0,0.767,803.2,75.8,1
1314979,10520374045,233.0,335.0,221.0,0,0.749,803.2,75.8,1
1314980,10520382047,198.0,302.0,189.0,0,0.726,803.2,75.8,1
1314981,10520390043,171.0,270.0,158.0,0,0.689,841.6,71.4,1
1314982,10520398044,149.0,241.0,127.0,0,0.655,841.6,71.4,1
1314983,10520406045,126.0,213.0,97.0,0,0.617,841.6,71.4,1
1314984,10520414047,109.0,188.0,68.0,0,0.581,841.6,71.4,1
1314985,10520422043,89.0,164.0,41.0,0,0.543,841.6,71.4,1
1314986,10520430044,80.0,143.0,16.0,0,0.507,841.6,71.4,1
1314987,10520438043,65.0,124.0,-8.0,0,0.491,841.6,71.4,1
1314988,10520446044,56.0,108.0,-29.0,0,0.494,841.6,71.4,1
1314989,10520454043,44.0,92.0,-48.0,0,0.5,841.6,71.4,1
1314990,10520462044,45.0,81.0,-65.0,0,0.505,841.6,71.4,1
1314991,10520470043,39.0,71.0,-80.0,0,0.507,841.6,71.4,1
1314992,10520478044,36.0,62.0,-93.0,0,0.506,841.6,71.4,1
1314993,10520486045,35.0,56.0,-104.0,0,0.503,841.6,71.4,1
1314994,10520494043,32.0,50.0,-113.0,0,0.498,841.6,71.4,1
1314995,10520502045,29.0,45.0,-120.0,0,0.49,841.6,71.4,1
1314996,10520510043,28.0,41.0,-127.0,0,0.498,841.6,71.4,1
1314997,10520518046,19.0,36.0,-132.0,0,0.488,841.6,71.4,1
1314998,10520526043,18.0,31.0,-137.0,0,0.494,841.6,71.4,1
1314999,10520534045,15.0,27.0,-142.0,0,0.499,841.6,71.4,1
1315000,10520542043,8.0,23.0,-146.0,0,0.496,841.6,71.4,1
1315001,10520550046,8.0,19.0,-150.0,0,0.501,841.6,71.4,1
1315002,10520558043,0.0,14.0,-154.0,0,0.505,841.6,71.4,3
1315003,10520566044,0.0,11.0,-157.0,0,0.501,841.6,71.4,3
1315004,10520574043,0.0,8.0,-160.0,0,0.504,841.6,71.4,3
1315005,10520582045,0.0,6.0,-162.0,0,0.499,841.6,71.4,3
1315006,10520590044,0.0,5.0,-164.0,0,0.502,841.6,71.4,3
1315007,10520598043,0.0,4.0,-165.0,0,0.496,841.6,71.4,3
1315008,10520606045,0.0,3.0,-166.0,0,0.497,841.6,71.4,3
1315009,10520614043,0.0,2.0,-166.0,1,0.49,841.6,71.4,3
1315010,10520622043,0.0,2.0,-166.0,0,0.49,841.6,71.4,3
1315011,10520630043,0.0,1.0,-166.0,0,0.49,841.6,71.4,3
1315012,10520638043,0.0,1.0,-166.0,0,0.49,841.6,71.4,3
1315013,10520646046,0.0,1.0,-165.0,0,0.496,841.6,71.4,3
1315014,10520654043,0.0,1.0,-165.0,1,0.489,841.6,71.4,3
1315015,10520662043,0.0,0.0,-164.0,0,0.495,841.6,71.4,3
1315016,10520670046,0.0,0.0,-163.0,0,0.494,841.6,71.4,3
1315017,10520678046,0.0,0.0,-163.0,1,0.487,841.6,71.4,3
1315018,10520686043,0.0,0.0,-162.0,0,0.493,841.6,71.4,3
1315019,10520694045,0.0,0.0,-161.0,0,0.492,841.6,71.4,3
1315020,10520702044,0.0,0.0,-160.0,0,0.49,841.6,71.4,3
1315021,10520710043,0.0,0.0,-159.0,0,0.489,841.6,71.4,3
1315022,10520718044,0.0,0.0,-158.0,0,0.488,841.6,71.4,3
1315023,10520726046,2.0,1.0,-157.0,0,0.487,841.6,71.4,1
1315024,10520734044,7.0,2.0,-155.0,0,0.492,841.6,71.4,1
1315025,10520742045,17.0,6.0,-153.0,0,0.49,841.6,71.4,1
1315026,10520750044,23.0,10.0,-150.0,0,0.494,841.6,71.4,1
1315027,10520758043,21.0,13.0,-146.0,0,0.497,841.6,71.4,1
1315028,10520766043,31.0,17.0,-142.0,0,0.493,841.6,71.4,1
1315029,10520774043,37.0,22.0,-138.0,0,0.488,841.6,71.4,1
1315030,10520782046,41.0,27.0,-133.0,0,0.49,841.6,71.4,1
1315031,10520790043,45.0,31.0,-128.0,0,0.485,841.6,71.4,1
1315032,10520798043,52.0,36.0,-123.0,0,0.479,841.6,71.4,1
1315033,10520806044,56.0,41.0,-118.0,0,0.474,841.6,71.4,1
1315034,10520814043,60.0,46.0,-113.0,0,0.468,841.6,71.4,1
1315035,10520822044,64.0,50.0,-107.0,0,0.469,841.6,71.4,1
1315036,10520830043,69.0,55.0,-102.0,0,0.456,841.6,71.4,1
1315037,10520838045,72.0,59.0,-97.0,0,0.45,841.6,71.4,1
1315038,10520846045,71.0,62.0,-93.0,0,0.438,841.6,71.4,1
1315039,10520854044,75.0,65.0,-88.0,0,0.44,841.6,71.4,1
1315040,10520862046,80.0,69.0,-84.0,0,0.428,841.6,71.4,1
1315041,10520870044,78.0,71.0,-80.0,0,0.424,841.6,71.4,1
1315042,10520878045,80.0,73.0,-77.0,0,0.413,841.6,71.4,1
1315043,10520886045,81.0,75.0,-73.0,0,0.416,841.6,71.4,1
1315044,10520894045,80.0,76.0,-71.0,0,0.399,841.6,71.4,1
1315045,10520902046,88.0,79.0,-68.0,0,0.404,841.6,71.4,1
1315046,10520910043,95.0,83.0,-64.0,0,0.407,841.6,71.4,1
1315047,10520918046,108.0,89.0,-60.0,0,0.402,841.6,71.4,1
1315048,10520926043,126.0,98.0,-55.0,0,0.404,841.6,71.4,1
1315049,10520934043,148.0,110.0,-47.0,0,0.419,841.6,71.4,1
1315050,10520942043,179.0,127.0,-37.0,0,0.424,841.6,71.4,1
1315051,10520950046,212.0,147.0,-24.0,0,0.434,841.6,71.4,1
1315052,10520958043,253.0,173.0,-7.0,0,0.447,841.6,71.4,1
1315053,10520966045,297.0,203.0,13.0,0,0.473,841.6,71.4,1
1315054,10520974043,341.0,237.0,37.0,0,0.521,841.6,71.4,1
1315055,10520982043,390.0,274.0,65.0,0,0.571,841.6,71.4,1
1315056,10520990047,429.0,311.0,95.0,0,0.613,841.6,71.4,1
1315057,10520998043,469.0,350.0,127.0,0,0.656,841.6,71.4,1
1315058,10521006043,503.0,387.0,160.0,0,0.695,841.6,71.4,1
1315059,10521014047,535.0,423.0,193.0,0,0.729,841.6,71.4,1
1315060,10521022043,563.0,457.0,226.0,0,0.76,841.6,71.4,1
1315061,10521030043,580.0,487.0,257.0,0,0.778,841.6,71.4,1
1315062,10521038043,592.0,512.0,286.0,0,0.791,841.6,71.4,1
1315063,10521046043,599.0,533.0,312.0,0,0.793,841.6,71.4,1
1315064,10521054043,598.0,549.0,335.0,0,0.79,841.6,71.4,1
1315065,10521062043,594.0,560.0,353.0,0,0.768,841.6,71.4,1
1315066,10521070043,583.0,565.0,367.0,0,0.747,841.6,71.4,1
1315067,10521078047,571.0,567.0,377.0,0,0.721,841.6,71.4,1
1315068,10521086043,554.0,564.0,382.0,0,0.686,841.6,71.4,1
1315069,10521094046,532.0,556.0,382.0,1,0.65,841.6,71.4,1
1315070,10521102045,500.0,542.0,378.0,0,0.675,841.6,71.4,1
1315071,10521110047,473.0,526.0,370.0,0,0.7,841.6,71.4,1
1315072,10521118043,443.0,506.0,358.0,0,0.724,841.6,71.4,1
1315073,10521126045,407.0,482.0,342.0,0,0.744,841.6,71.4,1
1315074,10521134047,372.0,455.0,322.0,0,0.759,841.6,71.4,1
1315075,10521142045,339.0,427.0,299.0,0,0.761,841.6,71.4,1
1315076,10521150047,300.0,396.0,274.0,0,0.753,841.6,71.4,1
1315077,10521158047,268.0,365.0,247.0,0,0.741,841.6,71.4,1
1315078,10521166047,232.0,333.0,218.0,0,0.724,841.6,71.4,1
1315079,10521174045,200.0,301.0,188.0,0,0.699,841.6,71.4,1
1315080,10521182043,172.0,269.0,157.0,0,0.671,841.6,71.4,1
1315081,10521190044,147.0,240.0,127.0,0,0.635,841.6,71.4,1
1315082,10521198043,120.0,211.0,97.0,0,0.603,841.6,71.4,1
1315083,10521206043,100.0,184.0,67.0,0,0.571,841.6,71.4,1
1315084,10521214043,89.0,161.0,40.0,0,0.529,841.6,71.4,1
1315085,10521222044,76.0,140.0,15.0,0,0.494,841.6,71.4,1
1315086,10521230046,68.0,123.0,-8.0,0,0.484,841.6,71.4,1
1315087,10521238043,62.0,108.0,-29.0,0,0.493,836.8,71.4,1
1315088,10521246043,52.0,94.0,-47.0,0,0.491,836.8,71.4,1
1315089,10521254043,50.0,84.0,-63.0,0,0.495,836.8,71.4,1
1315090,10521262047,48.0,75.0,-77.0,0,0.496,836.8,71.4,1
1315091,10521270043,42.0,67.0,-88.0,0,0.485,836.8,71.4,1
1315092,10521278044,36.0,60.0,-99.0,0,0.498,836.8,71.4,1
1315093,10521286043,37.0,54.0,-107.0,0,0.483,836.8,71.4,1
1315094,10521294043,29.0,48.0,-115.0,0,0.492,836.8,71.4,1
1315095,10521302046,26.0,43.0,-122.0,0,0.492,836.8,71.4,1
1315096,10521310043,23.0,38.0,-128.0,0,0.491,836.8,71.4,1
1315097,10521318044,16.0,33.0,-133.0,0,0.489,836.8,71.4,1
1315098,10521326044,16.0,29.0,-138.0,0,0.494,836.8,71.4,1
1315099,10521334043,7.0,23.0,-143.0,0,0.499,836.8,71.4,1
1315100,10521342045,5.0,19.0,-147.0,0,0.496,836.8,71.4,1
1315101,10521350043,2.0,15.0,-151.0,0,0.5,836.8,71.4,1
1315102,10521358045,0.0,11.0,-154.0,0,0.496,836.8,71.4,3
1315103,10521366043,0.0,8.0,-157.0,0,0.499,836.8,71.4,3
1315104,10521374047,0.0,6.0,-160.0,0,0.502,836.8,71.4,3
1315105,10521382046,0.0,5.0,-162.0,0,0.497,836.8,71.4,3
1315106,10521390045,0.0,4.0,-163.0,0,0.491,836.8,71.4,3
1315107,10521398043,0.0,3.0,-164.0,0,0.491,836.8,71.4,3
1315108,10521406045,0.0,2.0,-164.0,1,0.484,836.8,71.4,3
1315109,10521414043,0.0,2.0,-164.0,0,0.484,836.8,71.4,3
1315110,10521422046,0.0,1.0,-164.0,0,0.484,836.8,71.4,3
1315111,10521430046,0.0,1.0,-164.0,0,0.484,836.8,71.4,3
1315112,10521438046,0.0,1.0,-164.0,0,0.484,836.8,71.4,3
1315113,10521446045,0.0,1.0,-163.0,0,0.49,836.8,71.4,3
1315114,10521454045,0.0,0.0,-162.0,0,0.489,836.8,71.4,3
1315115,10521462043,0.0,0.0,-162.0,1,0.482,836.8,71.4,3
1315116,10521470043,0.0,0.0,-161.0,0,0.488,836.8,71.4,3
1315117,10521478045,0.0,0.0,-160.0,0,0.487,836.8,71.4,3
1315118,10521486046,0.0,0.0,-159.0,0,0.486,836.8,71.4,3
1315119,10521494045,0.0,0.0,-158.0,0,0.485,836.8,71.4,3
1315120,10521502045,0.0,0.0,-157.0,0,0.484,836.8,71.4,3
1315121,10521510046,0.0,0.0,-156.0,0,0.483,836.8,71.4,3
1315122,10521518046,3.0,1.0,-155.0,0,0.482,836.8,71.4,1
1315123,10521526047,9.0,3.0,-153.0,0,0.487,836.8,71.4,1
1315124,10521534044,11.0,5.0,-151.0,0,0.484,836.8,71.4,1
1315125,10521542044,17.0,8.0,-149.0,0,0.482,836.8,71.4,1
1315126,10521550043,25.0,12.0,-145.0,0,0.493,832.0,71.4,1
1315127,10521558043,28.0,16.0,-142.0,0,0.482,832.0,71.4,1
1315128,10521566043,32.0,20.0,-138.0,0,0.485,832.0,71.4,1
1315129,10521574043,40.0,25.0,-133.0,0,0.487,832.0,71.4,1
1315130,10521582043,44.0,29.0,-128.0,0,0.482,832.0,71.4,1
1315131,10521590046,48.0,34.0,-123.0,0,0.476,832.0,71.4,1
1315132,10521598043,52.0,38.0,-118.0,0,0.471,832.0,71.4,1
1315133,10521606045,60.0,44.0,-113.0,0,0.465,832.0,71.4,1
1315134,10521614043,60.0,48.0,-108.0,0,0.46,832.0,71.4,1
1315135,10521622045,66.0,52.0,-103.0,0,0.454,832.0,71.4,1
1315136,10521630045,67.0,56.0,-98.0,0,0.449,832.0,71.4,1
1315137,10521638045,69.0,59.0,-94.0,0,0.437,832.0,71.4,1
1315138,10521646043,76.0,63.0,-89.0,0,0.439,832.0,71.4,1
1315139,10521654043,77.0,66.0,-85.0,0,0.427,832.0,71.4,1
1315140,10521662043,82.0,70.0,-80.0,0,0.429,832.0,71.4,1
1315141,10521670044,83.0,73.0,-76.0,0,0.417,832.0,71.4,1
1315142,10521678045,84.0,76.0,-72.0,0,0.413,832.0,71.4,1
1315143,10521686043,96.0,81.0,-68.0,0,0.409,832.0,71.4,1
1315144,10521694043,100.0,85.0,-64.0,0,0.404,832.0,71.4,1
1315145,10521702043,112.0,92.0,-59.0,0,0.407,832.0,71.4,1
1315146,10521710047,132.0,102.0,-52.0,0,0.415,832.0,71.4,1
1315147,10521718043,151.0,114.0,-44.0,0,0.414,832.0,71.4,1
1315148,10521726047,184.0,131.0,-33.0,0,0.426,832.0,71.4,1
1315149,10521734045,221.0,153.0,-20.0,0,0.428,832.0,71.4,1
1315150,10521742044,262.0,179.0,-2.0,0,0.447,832.0,71.4,1
1315151,10521750043,309.0,211.0,19.0,0,0.488,832.0,71.4,1
1315152,10521758043,357.0,246.0,44.0,0,0.537,832.0,71.4,1
1315153,10521766044,404.0,284.0,73.0,0,0.588,832.0,71.4,1
1315154,10521774043,450.0,325.0,104.0,0,0.631,832.0,71.4,1
1315155,10521782043,492.0,365.0,138.0,0,0.68,832.0,71.4,1
1315156,10521790046,532.0,406.0,173.0,0,0.72,832.0,71.4,1
1315157,10521798047,564.0,444.0,209.0,0,0.759,832.0,71.4,1
1315158,10521806043,595.0,481.0,244.0,0,0.787,832.0,71.4,1
1315159,10521814043,608.0,511.0,277.0,0,0.806,832.0,71.4,1
1315160,10521822047,625.0,539.0,308.0,0,0.819,832.0,71.4,1
1315161,10521830046,636.0,563.0,336.0,0,0.821,832.0,71.4,1
1315162,10521838046,636.0,580.0,361.0,0,0.818,832.0,71.4,1
1315163,10521846046,631.0,593.0,381.0,0,0.796,832.0,71.4,1
1315164,10521854046,627.0,601.0,396.0,0,0.768,832.0,71.4,1
1315165,10521862046,614.0,604.0,408.0,0,0.75,832.0,71.4,1
1315166,10521870043,595.0,602.0,415.0,0,0.714,832.0,71.4,1
1315167,10521878045,571.0,594.0,416.0,0,0.671,832.0,71.4,1
1315168,10521886047,549.0,583.0,414.0,1,0.676,832.0,71.4,1
1315169,10521894046,521.0,568.0,407.0,0,0.706,832.0,71.4,1
1315170,10521902043,492.0,550.0,396.0,0,0.729,832.0,71.4,1
1315171,10521910043,459.0,528.0,381.0,0,0.749,832.0,71.4,1
1315172,10521918043,420.0,502.0,363.0,0,0.758,832.0,71.4,1
1315173,10521926047,382.0,473.0,340.0,0,0.775,832.0,71.4,1
1315174,10521934043,347.0,442.0,315.0,0,0.768,832.0,71.4,1
1315175,10521942043,310.0,410.0,288.0,0,0.758,832.0,71.4,1
1315176,10521950043,276.0,378.0,259.0,0,0.743,832.0,71.4,1
1315177,10521958046,236.0,343.0,228.0,0,0.723,832.0,71.4,1
1315178,10521966047,208.0,310.0,196.0,0,0.697,832.0,71.4,1
1315179,10521974045,180.0,279.0,164.0,0,0.664,832.0,71.4,1
1315180,10521982047,153.0,248.0,133.0,0,0.629,832.0,71.4,1
1315181,10521990046,127.0,219.0,102.0,0,0.597,832.0,71.4,1
1315182,10521998046,108.0,192.0,72.0,0,0.562,832.0,71.4,1
1315183,10522006046,91.0,168.0,44.0,0,0.526,832.0,71.4,1
1315184,10522014044,76.0,145.0,17.0,0,0.496,832.0,71.4,1
1315185,10522022043,66.0,126.0,-7.0,0,0.495,832.0,71.4,1
1315186,10522030043,55.0,109.0,-29.0,0,0.504,832.0,71.4,1
1315187,10522038043,42.0,93.0,-49.0,0,0.511,832.0,71.4,1
1315188,10522046043,40.0,80.0,-67.0,0,0.516,832.0,71.4,1
1315189,10522054043,32.0,68.0,-83.0,0,0.519,832.0,71.4,1
1315190,10522062043,30.0,59.0,-97.0,0,0.519,832.0,71.4,1
1315191,10522070043,24.0,51.0,-109.0,0,0.518,832.0,71.4,1
1315192,10522078047,21.0,43.0,-119.0,0,0.513,832.0,71.4,1
1315193,10522086043,19.0,37.0,-128.0,0,0.516,832.0,71.4,1
1315194,10522094043,12.0,31.0,-136.0,0,0.516,832.0,71.4,1
1315195,10522102043,6.0,25.0,-143.0,0,0.516,832.0,71.4,1
1315196,10522110045,1.0,19.0,-149.0,0,0.515,832.0,71.4,1
1315197,10522118043,0.0,15.0,-154.0,0,0.512,832.0,71.4,3
1315198,10522126045,0.0,11.0,-159.0,0,0.517,832.0,71.4,3
1315199,10522134046,0.0,8.0,-163.0,0,0.513,832.0,71.4,3
1315200,10522142044,0.0,6.0,-166.0,0,0.509,832.0,71.4,3
1315201,10522150046,0.0,5.0,-168.0,0,0.503,832.0,71.4,3
1315202,10522158045,0.0,4.0,-170.0,0,0.504,832.0,71.4,3
1315203,10522166043,0.0,3.0,-171.0,0,0.498,832.0,71.4,3
1315204,10522174044,0.0,2.0,-171.0,1,0.49,828.8,71.4,3
1315205,10522182046,0.0,2.0,-171.0,0,0.489,828.8,71.4,3
1315206,10522190043,0.0,1.0,-171.0,0,0.489,828.8,71.4,3
1315207,10522198046,0.0,1.0,-171.0,0,0.488,828.8,71.4,3
1315208,10522206046,0.0,1.0,-171.0,0,0.488,828.8,71.4,3
1315209,10522214046,0.0,1.0,-170.0,0,0.494,828.8,71.4,3
1315210,10522222045,0.0,0.0,-169.0,0,0.492,828.8,71.4,3
1315211,10522230046,0.0,0.0,-169.0,1,0.485,828.8,71.4,3
1315212,10522238043,0.0,0.0,-168.0,0,0.491,828.8,71.4,3
1315213,10522246045,0.0,0.0,-167.0,0,0.489,828.8,71.4,3
1315214,10522254044,0.0,0.0,-166.0,0,0.488,828.8,71.4,3
1315215,10522262045,0.0,0.0,-165.0,0,0.487,828.8,71.4,3
1315216,10522270043,0.0,0.0,-164.0,0,0.486,828.8,71.4,3
1315217,10522278043,0.0,0.0,-163.0,0,0.485,828.8,71.4,3
1315218,10522286043,0.0,0.0,-162.0,0,0.484,828.8,71.4,3
1315219,10522294044,0.0,0.0,-161.0,0,0.483,828.8,71.4,3
1315220,10522302043,0.0,0.0,-160.0,0,0.482,828.8,71.4,3
1315221,10522310043,0.0,0.0,-159.0,0,0.481,828.8,71.4,3
1315222,10522318045,0.0,0.0,-158.0,0,0.48,828.8,71.4,3
1315223,10522326045,0.0,0.0,-157.0,0,0.479,828.8,71.4,3
1315224,10522334043,1.0,0.0,-156.0,0,0.478,828.8,71.4,1
1315225,10522342047,4.0,1.0,-154.0,0,0.483,828.8,71.4,1
1315226,10522350046,14.0,4.0,-152.0,0,0.48,828.8,71.4,1
1315227,10522358044,16.0,7.0,-150.0,0,0.478,828.8,71.4,1
1315228,10522366043,23.0,11.0,-146.0,0,0.489,828.8,71.4,1
1315229,10522374044,27.0,15.0,-143.0,0,0.478,828.8,71.4,1
1315230,10522382043,32.0,19.0,-139.0,0,0.481,828.8,71.4,1
1315231,10522390044,38.0,24.0,-134.0,0,0.483,828.8,71.4,1
1315232,10522398043,43.0,28.0,-129.0,0,0.478,828.8,71.4,1
1315233,10522406047,47.0,33.0,-125.0,0,0.466,828.8,71.4,1
1315234,10522414047,48.0,37.0,-120.0,0,0.468,828.8,71.4,1
1315235,10522422044,55.0,41.0,-115.0,0,0.463,828.8,71.4,1
1315236,10522430043,58.0,45.0,-110.0,0,0.457,828.8,71.4,1
1315237,10522438045,61.0,49.0,-105.0,0,0.452,828.8,71.4,1
1315238,10522446043,64.0,53.0,-101.0,0,0.44,828.8,71.4,1
1315239,10522454044,61.0,55.0,-97.0,0,0.436,828.8,71.4,1
1315240,10522462043,68.0,58.0,-93.0,0,0.431,828.8,71.4,1
1315241,10522470047,71.0,61.0,-89.0,0,0.427,828.8,71.4,1
1315242,10522478043,70.0,63.0,-85.0,0,0.423,828.8,71.4,1
1315243,10522486046,80.0,67.0,-82.0,0,0.413,828.8,71.4,1
1315244,10522494045,83.0,71.0,-78.0,0,0.416,828.8,71.4,1
1315245,10522502043,100.0,78.0,-73.0,0,0.418,828.8,71.4,1
1315246,10522510043,122.0,89.0,-66.0,0,0.426,828.8,71.4,1
1315247,10522518043,144.0,102.0,-57.0,0,0.432,828.8,71.4,1
1315248,10522526043,184.0,122.0,-45.0,0,0.443,828.8,71.4,1
1315249,10522534043,224.0,147.0,-30.0,0,0.45,828.8,71.4,1
1315250,10522542043,268.0,176.0,-10.0,0,0.465,828.8,71.4,1
1315251,10522550046,313.0,209.0,13.0,0,0.495,828.8,71.4,1
1315252,10522558043,367.0,248.0,40.0,0,0.544,828.8,71.4,1
1315253,10522566043,415.0,288.0,71.0,0,0.595,828.8,71.4,1
1315254,10522574043,464.0,331.0,105.0,0,0.644,828.8,71.4,1
1315255,10522582044,507.0,373.0,141.0,0,0.69,828.8,71.4,1
1315256,10522590043,545.0,415.0,178.0,0,0.732,828.8,71.4,1
1315257,10522598043,576.0,454.0,215.0,0,0.768,828.8,71.4,1
1315258,10522606043,609.0,492.0,251.0,0,0.796,828.8,71.4,1
1315259,10522614043,624.0,524.0,286.0,0,0.819,828.8,71.4,1
1315260,10522622043,639.0,552.0,318.0,0,0.828,828.8,71.4,1
1315261,10522630043,651.0,576.0,347.0,0,0.831,828.8,71.4,1
1315262,10522638043,651.0,594.0,372.0,0,0.822,828.8,71.4,1
1315263,10522646047,651.0,608.0,392.0,0,0.8,828.8,71.4,1
1315264,10522654043,638.0,615.0,409.0,0,0.785,828.8,71.4,1
1315265,10522662045,628.0,618.0,420.0,0,0.746,828.8,71.4,1
1315266,10522670047,603.0,615.0,427.0,0,0.718,828.8,71.4,1
1315267,10522678046,586.0,608.0,428.0,0,0.676,828.8,71.4,1
1315268,10522686043,563.0,597.0,426.0,1,0.68,828.8,71.4,1
1315269,10522694043,533.0,581.0,419.0,0,0.71,828.8,71.4,1
1315270,10522702043,500.0,562.0,407.0,0,0.738,828.8,71.4,1
1315271,10522710046,465.0,538.0,392.0,0,0.75,828.8,71.4,1
1315272,10522718046,436.0,513.0,373.0,0,0.765,828.8,71.4,1
1315273,10522726043,399.0,486.0,351.0,0,0.768,828.8,71.4,1
1315274,10522734047,355.0,454.0,326.0,0,0.767,828.8,71.4,1
1315275,10522742046,318.0,421.0,298.0,0,0.76,828.8,71.4,1
1315276,10522750043,276.0,386.0,268.0,0,0.743,828.8,71.4,1
1315277,10522758043,241.0,351.0,236.0,0,0.721,828.8,71.4,1
1315278,10522766043,205.0,315.0,203.0,0,0.693,828.8,71.4,1
1315279,10522774045,176.0,282.0,169.0,0,0.662,828.8,71.4,1
1315280,10522782043,144.0,248.0,136.0,0,0.624,828.8,71.4,1
1315281,10522790043,116.0,216.0,102.0,0,0.594,828.8,71.4,1
1315282,10522798047,93.0,186.0,70.0,0,0.555,832.0,71.4,1
1315283,10522806044,71.0,158.0,39.0,0,0.522,832.0,71.4,1
1315284,10522814046,52.0,133.0,10.0,0,0.51,832.0,71.4,1
1315285,10522822043,41.0,110.0,-17.0,0,0.524,832.0,71.4,1
1315286,10522830043,24.0,89.0,-42.0,0,0.537,832.0,71.4,1
1315287,10522838043,19.0,72.0,-65.0,0,0.549,832.0,71.4,1
1315288,10522846043,8.0,57.0,-85.0,0,0.55,832.0,71.4,1
1315289,10522854045,2.0,43.0,-103.0,0,0.555,832.0,71.4,1
1315290,10522862043,0.0,33.0,-119.0,0,0.558,832.0,71.4,3
1315291,10522870044,0.0,25.0,-132.0,0,0.55,832.0,71.4,3
1315292,10522878043,0.0,19.0,-143.0,0,0.547,832.0,71.4,3
1315293,10522886044,0.0,14.0,-152.0,0,0.541,832.0,71.4,3
1315294,10522894043,0.0,11.0,-158.0,0,0.526,832.0,71.4,3
1315295,10522902046,0.0,8.0,-164.0,0,0.531,832.0,71.4,3
1315296,10522910043,0.0,6.0,-168.0,0,0.521,832.0,71.4,3
1315297,10522918046,0.0,5.0,-171.0,0,0.516,832.0,71.4,3
1315298,10522926045,0.0,4.0,-173.0,0,0.51,832.0,71.4,3
1315299,10522934047,0.0,3.0,-174.0,0,0.504,832.0,71.4,3
1315300,10522942043,0.0,2.0,-175.0,0,0.504,832.0,71.4,3
1315301,10522950046,0.0,2.0,-175.0,1,0.496,832.0,71.4,3
1315302,10522958043,0.0,1.0,-176.0,0,0.503,832.0,71.4,3
1315303,10522966046,0.0,1.0,-175.0,1,0.501,832.0,71.4,3
1315304,10522974043,0.0,1.0,-175.0,1,0.493,832.0,71.4,3
1315305,10522982043,0.0,1.0,-174.0,0,0.497,832.0,71.4,3
1315306,10522990044,0.0,0.0,-174.0,1,0.49,832.0,71.4,3
1315307,10522998043,0.0,0.0,-173.0,0,0.495,832.0,71.4,3
1315308,10523006046,0.0,0.0,-172.0,0,0.493,832.0,71.4,3
1315309,10523014046,0.0,0.0,-171.0,0,0.491,832.0,71.4,3
1315310,10523022044,0.0,0.0,-170.0,0,0.49,832.0,71.4,3
1315311,10523030046,0.0,0.0,-169.0,0,0.488,832.0,71.4,3
1315312,10523038046,0.0,0.0,-168.0,0,0.486,832.0,71.4,3
1315313,10523046047,0.0,0.0,-167.0,0,0.485,832.0,71.4,3
1315314,10523054045,0.0,0.0,-166.0,0,0.484,832.0,71.4,3
1315315,10523062046,0.0,0.0,-165.0,0,0.482,832.0,71.4,3
1315316,10523070044,0.0,0.0,-164.0,0,0.481,832.0,71.4,3
1315317,10523078045,0.0,0.0,-163.0,0,0.48,832.0,71.4,3
1315318,10523086045,0.0,0.0,-162.0,0,0.478,832.0,71.4,3
1315319,10523094044,0.0,0.0,-161.0,0,0.477,832.0,71.4,3
1315320,10523102044,0.0,0.0,-160.0,0,0.476,832.0,71.4,3
1315321,10523110045,0.0,0.0,-159.0,0,0.475,832.0,71.4,3
1315322,10523118043,0.0,0.0,-158.0,0,0.474,832.0,71.4,3
1315323,10523126043,0.0,0.0,-156.0,0,0.478,832.0,71.4,3
1315324,10523134044,0.0,0.0,-155.0,0,0.47,832.0,71.4,3
1315325,10523142043,0.0,0.0,-154.0,0,0.469,832.0,71.4,3
1315326,10523150046,0.0,0.0,-153.0,0,0.468,832.0,71.4,3
1315327,10523158045,2.0,0.0,-152.0,0,0.467,832.0,71.4,1
1315328,10523166046,12.0,3.0,-150.0,0,0.472,832.0,71.4,1
1315329,10523174043,15.0,6.0,-148.0,0,0.47,832.0,71.4,1
1315330,10523182043,19.0,9.0,-145.0,0,0.474,832.0,71.4,1
1315331,10523190044,24.0,13.0,-142.0,0,0.471,832.0,71.4,1
1315332,10523198043,24.0,16.0,-138.0,0,0.474,832.0,71.4,1
1315333,10523206043,32.0,20.0,-134.0,0,0.469,832.0,71.4,1
1315334,10523214043,36.0,24.0,-130.0,0,0.465,832.0,71.4,1
1315335,10523222043,40.0,28.0,-126.0,0,0.461,832.0,71.4,1
1315336,10523230043,45.0,32.0,-122.0,0,0.457,832.0,71.4,1
1315337,10523238043,48.0,36.0,-117.0,0,0.459,832.0,71.4,1
1315338,10523246046,52.0,40.0,-112.0,0,0.453,832.0,71.4,1
1315339,10523254043,52.0,43.0,-108.0,0,0.442,832.0,71.4,1
1315340,10523262043,59.0,47.0,-104.0,0,0.438,832.0,71.4,1
1315341,10523270045,61.0,50.0,-100.0,0,0.434,832.0,71.4,1
1315342,10523278043,67.0,54.0,-95.0,0,0.436,832.0,71.4,1
1315343,10523286047,72.0,59.0,-91.0,0,0.424,832.0,71.4,1
1315344,10523294045,80.0,64.0,-86.0,0,0.426,832.0,71.4,1
1315345,10523302047,97.0,72.0,-80.0,0,0.428,832.0,71.4,1
1315346,10523310043,116.0,83.0,-72.0,0,0.434,832.0,71.4,1
1315347,10523318043,144.0,97.0,-63.0,0,0.433,832.0,71.4,1
1315348,10523326043,179.0,117.0,-50.0,0,0.449,832.0,71.4,1
1315349,10523334046,219.0,142.0,-34.0,0,0.455,832.0,71.4,1
1315350,10523342047,260.0,171.0,-15.0,0,0.457,832.0,71.4,1
1315351,10523350047,309.0,204.0,9.0,0,0.495,832.0,71.4,1
1315352,10523358043,358.0,241.0,36.0,0,0.537,832.0,71.4,1
1315353,10523366043,412.0,283.0,67.0,0,0.588,832.0,71.4,1
1315354,10523374047,458.0,325.0,101.0,0,0.636,832.0,71.4,1
1315355,10523382047,502.0,368.0,137.0,0,0.681,832.0,71.4,1
1315356,10523390043,543.0,410.0,174.0,0,0.722,832.0,71.4,1
1315357,10523398047,580.0,452.0,212.0,0,0.762,832.0,71.4,1
1315358,10523406044,606.0,489.0,249.0,0,0.791,832.0,71.4,1
1315359,10523414045,623.0,521.0,284.0,0,0.81,832.0,71.4,1
1315360,10523422043,636.0,549.0,316.0,0,0.82,832.0,71.4,1
1315361,10523430043,649.0,573.0,345.0,0,0.822,832.0,71.4,1
1315362,10523438045,648.0,592.0,371.0,0,0.819,832.0,71.4,1
1315363,10523446047,639.0,603.0,391.0,0,0.792,832.0,71.4,1
1315364,10523454047,628.0,609.0,406.0,0,0.764,832.0,71.4,1
1315365,10523462047,612.0,610.0,417.0,0,0.74,832.0,71.4,1
1315366,10523470046,599.0,607.0,423.0,0,0.705,832.0,71.4,1
1315367,10523478043,575.0,599.0,424.0,0,0.671,832.0,71.4,1
1315368,10523486043,552.0,588.0,421.0,1,0.681,832.0,71.4,1
1315369,10523494043,523.0,572.0,413.0,0,0.709,832.0,71.4,1
1315370,10523502047,485.0,551.0,401.0,0,0.73,832.0,71.4,1
1315371,10523510046,456.0,528.0,385.0,0,0.747,832.0,71.4,1
1315372,10523518047,416.0,501.0,365.0,0,0.76,832.0,71.4,1
1315373,10523526045,376.0,471.0,342.0,0,0.762,832.0,71.4,1
1315374,10523534047,339.0,439.0,316.0,0,0.759,832.0,71.4,1
1315375,10523542047,298.0,405.0,287.0,0,0.75,832.0,71.4,1
1315376,10523550047,258.0,369.0,256.0,0,0.731,832.0,71.4,1
1315377,10523558047,224.0,334.0,223.0,0,0.708,832.0,71.4,1
1315378,10523566046,188.0,299.0,190.0,0,0.675,832.0,71.4,1
1315379,10523574043,157.0,264.0,156.0,0,0.645,832.0,71.4,1
1315380,10523582047,127.0,231.0,122.0,0,0.611,832.0,71.4,1
1315381,10523590047,105.0,200.0,89.0,0,0.574,832.0,71.4,1
1315382,10523598046,84.0,172.0,57.0,0,0.54,832.0,71.4,1
1315383,10523606044,66.0,146.0,28.0,0,0.501,832.0,71.4,1
1315384,10523614043,49.0,123.0,0.0,0,0.508,832.0,71.4,1
1315385,10523622043,35.0,102.0,-26.0,0,0.521,832.0,71.4,1
1315386,10523630043,27.0,83.0,-49.0,0,0.526,832.0,71.4,1
1315387,10523638043,15.0,67.0,-71.0,0,0.541,832.0,71.4,1
1315388,10523646043,12.0,54.0,-89.0,0,0.533,832.0,71.4,1
1315389,10523654044,6.0,42.0,-106.0,0,0.543,832.0,71.4,1
1315390,10523662043,3.0,33.0,-120.0,0,0.537,832.0,71.4,1
1315391,10523670047,0.0,25.0,-132.0,0,0.535,832.0,71.4,3
1315392,10523678043,0.0,19.0,-142.0,0,0.53,832.0,71.4,3
1315393,10523686047,0.0,14.0,-150.0,0,0.524,832.0,71.4,3
1315394,10523694043,0.0,11.0,-156.0,0,0.516,832.0,71.4,3
1315395,10523702043,0.0,8.0,-161.0,0,0.513,832.0,71.4,3
1315396,10523710044,0.0,6.0,-165.0,0,0.51,832.0,71.4,3
1315397,10523718043,0.0,5.0,-168.0,0,0.505,832.0,71.4,3
1315398,10523726044,0.0,4.0,-170.0,0,0.5,832.0,71.4,3
1315399,10523734043,0.0,3.0,-171.0,0,0.494,832.0,71.4,3
1315400,10523742047,0.0,2.0,-172.0,0,0.493,832.0,71.4,3
1315401,10523750047,0.0,2.0,-173.0,0,0.493,832.0,71.4,3
1315402,10523758043,0.0,1.0,-173.0,1,0.486,832.0,71.4,3
1315403,10523766046,0.0,1.0,-172.0,0,0.49,832.0,71.4,3
1315404,10523774043,0.0,1.0,-172.0,1,0.483,832.0,71.4,3
1315405,10523782043,0.0,1.0,-171.0,0,0.488,832.0,71.4,3
1315406,10523790047,0.0,0.0,-171.0,1,0.48,832.0,71.4,3
1315407,10523798043,0.0,0.0,-170.0,0,0.485,832.0,71.4,3
1315408,10523806044,0.0,0.0,-169.0,0,0.483,832.0,71.4,3
1315409,10523814045,0.0,0.0,-168.0,0,0.482,832.0,71.4,3
1315410,10523822047,0.0,0.0,-167.0,0,0.48,832.0,71.4,3
1315411,10523830045,0.0,0.0,-166.0,0,0.479,832.0,71.4,3
1315412,10523838046,0.0,0.0,-165.0,0,0.477,832.0,71.4,3
1315413,10523846046,0.0,0.0,-164.0,0,0.476,832.0,71.4,3
1315414,10523854044,0.0,0.0,-163.0,0,0.475,832.0,71.4,3
1315415,10523862045,0.0,0.0,-162.0,0,0.473,832.0,71.4,3
1315416,10523870044,0.0,0.0,-161.0,0,0.472,832.0,71.4,3
1315417,10523878045,0.0,0.0,-160.0,0,0.471,832.0,71.4,3
1315418,10523886045,0.0,0.0,-159.0,0,0.47,832.0,71.4,3
1315419,10523894045,0.0,0.0,-158.0,0,0.469,832.0,71.4,3
1315420,10523902047,0.0,0.0,-157.0,0,0.467,832.0,71.4,3
1315421,10523910044,0.0,0.0,-156.0,0,0.466,832.0,71.4,3
1315422,10523918045,0.0,0.0,-155.0,0,0.465,832.0,71.4,3
1315423,10523926045,1.0,0.0,-154.0,0,0.464,832.0,71.4,1
1315424,10523934044,5.0,1.0,-152.0,0,0.469,832.0,71.4,1
1315425,10523942046,11.0,4.0,-150.0,0,0.467,832.0,71.4,1
1315426,10523950043,18.0,7.0,-148.0,0,0.465,832.0,71.4,1
1315427,10523958044,21.0,11.0,-145.0,0,0.468,832.0,71.4,1
1315428,10523966043,28.0,15.0,-141.0,0,0.471,832.0,71.4,1
1315429,10523974043,35.0,20.0,-137.0,0,0.467,832.0,71.4,1
1315430,10523982043,40.0,25.0,-132.0,0,0.469,832.0,71.4,1
1315431,10523990043,46.0,30.0,-127.0,0,0.464,832.0,71.4,1
1315432,10523998047,52.0,35.0,-122.0,0,0.459,832.0,71.4,1
1315433,10524006043,60.0,41.0,-116.0,0,0.459,832.0,71.4,1
1315434,10524014043,61.0,46.0,-110.0,0,0.453,832.0,71.4,1
1315435,10524022043,68.0,51.0,-105.0,0,0.441,832.0,71.4,1
1315436,10524030043,72.0,56.0,-99.0,0,0.442,832.0,71.4,1
1315437,10524038043,68.0,59.0,-94.0,0,0.43,832.0,71.4,1
1315438,10524046045,71.0,62.0,-89.0,0,0.425,832.0,71.4,1
1315439,10524054043,72.0,64.0,-85.0,0,0.414,832.0,71.4,1
1315440,10524062044,72.0,66.0,-82.0,0,0.404,832.0,71.4,1
1315441,10524070044,76.0,69.0,-78.0,0,0.407,832.0,71.4,1
1315442,10524078045,76.0,70.0,-75.0,0,0.398,832.0,71.4,1
1315443,10524086044,86.0,74.0,-72.0,0,0.395,832.0,71.4,1
1315444,10524094044,90.0,78.0,-68.0,0,0.398,832.0,71.4,1
1315445,10524102044,100.0,83.0,-64.0,0,0.394,832.0,71.4,1
1315446,10524110043,113.0,91.0,-59.0,0,0.396,832.0,71.4,1
1315447,10524118043,131.0,100.0,-52.0,0,0.404,832.0,71.4,1
1315448,10524126043,156.0,114.0,-44.0,0,0.403,832.0,71.4,1
1315449,10524134045,187.0,132.0,-33.0,0,0.415,832.0,71.4,1
1315450,10524142043,228.0,155.0,-18.0,0,0.429,832.0,71.4,1
1315451,10524150047,267.0,182.0,0.0,0,0.443,832.0,71.4,1
1315452,10524158045,312.0,214.0,22.0,0,0.489,832.0,71.4,1
1315453,10524166043,360.0,249.0,48.0,0,0.537,832.0,71.4,1
1315454,10524174043,405.0,287.0,76.0,0,0.575,832.0,71.4,1
1315455,10524182043,449.0,326.0,108.0,0,0.626,832.0,71.4,1
1315456,10524190046,488.0,365.0,141.0,0,0.664,832.0,71.4,1
1315457,10524198043,524.0,404.0,175.0,0,0.702,832.0,71.4,1
1315458,10524206043,559.0,441.0,210.0,0,0.739,832.0,71.4,1
1315459,10524214043,581.0,475.0,243.0,0,0.76,832.0,71.4,1
1315460,10524222045,596.0,505.0,275.0,0,0.781,832.0,71.4,1
1315461,10524230044,612.0,531.0,305.0,0,0.793,832.0,71.4,1
1315462,10524238043,614.0,551.0,331.0,0,0.789,832.0,71.4,1
1315463,10524246043,613.0,566.0,353.0,0,0.778,832.0,71.4,1
1315464,10524254043,607.0,576.0,371.0,0,0.761,832.0,71.4,1
1315465,10524262047,596.0,581.0,384.0,0,0.733,832.0,71.4,1
1315466,10524270043,575.0,579.0,393.0,0,0.708,832.0,71.4,1
1315467,10524278046,560.0,575.0,396.0,0,0.668,832.0,71.4,1
1315468,10524286043,536.0,565.0,396.0,1,0.647,832.0,71.4,1
1315469,10524294047,511.0,552.0,391.0,0,0.675,832.0,71.4,1
1315470,10524302043,483.0,535.0,382.0,0,0.695,832.0,71.4,1
1315471,10524310047,448.0,514.0,369.0,0,0.714,832.0,71.4,1
1315472,10524318045,412.0,489.0,352.0,0,0.729,832.0,71.4,1
1315473,10524326046,380.0,463.0,331.0,0,0.739,832.0,71.4,1
1315474,10524334047,340.0,433.0,308.0,0,0.733,832.0,71.4,1
1315475,10524342043,302.0,401.0,282.0,0,0.728,832.0,71.4,1
1315476,10524350047,263.0,368.0,253.0,0,0.718,832.0,71.4,1
1315477,10524358047,228.0,334.0,222.0,0,0.699,832.0,71.4,1
1315478,10524366043,194.0,300.0,191.0,0,0.669,832.0,71.4,1
1315479,10524374043,166.0,268.0,159.0,0,0.642,832.0,71.4,1
1315480,10524382045,135.0,235.0,127.0,0,0.611,832.0,71.4,1
1315481,10524390044,115.0,206.0,95.0,0,0.58,832.0,71.4,1
1315482,10524398047,92.0,179.0,65.0,0,0.543,832.0,71.4,1
1315483,10524406044,75.0,153.0,36.0,0,0.512,832.0,71.4,1
1315484,10524414046,60.0,131.0,9.0,0,0.491,832.0,71.4,1
1315485,10524422046,48.0,111.0,-15.0,0,0.495,832.0,71.4,1
1315486,10524430043,41.0,94.0,-38.0,0,0.51,832.0,71.4,1
1315487,10524438043,32.0,79.0,-58.0,0,0.511,832.0,71.4,1
1315488,10524446043,25.0,66.0,-76.0,0,0.515,832.0,71.4,1
1315489,10524454044,20.0,55.0,-91.0,0,0.51,832.0,71.4,1
1315490,10524462043,15.0,45.0,-105.0,0,0.516,832.0,71.4,1
1315491,10524470045,10.0,37.0,-117.0,0,0.514,832.0,71.4,1
1315492,10524478046,7.0,29.0,-127.0,0,0.51,832.0,71.4,1
1315493,10524486043,0.0,22.0,-136.0,0,0.512,832.0,71.4,3
1315494,10524494045,0.0,17.0,-144.0,0,0.513,832.0,71.4,3
1315495,10524502043,0.0,13.0,-150.0,0,0.505,832.0,71.4,3
1315496,10524510044,0.0,10.0,-155.0,0,0.503,832.0,71.4,3
1315497,10524518044,0.0,7.0,-159.0,0,0.499,832.0,71.4,3
1315498,10524526044,0.0,6.0,-162.0,0,0.495,832.0,71.4,3
1315499,10524534046,0.0,4.0,-165.0,0,0.497,832.0,71.4,3
1315500,10524542045,0.0,3.0,-166.0,0,0.484,832.0,71.4,3
1315501,10524550043,0.0,2.0,-167.0,0,0.484,832.0,71.4,3
1315502,10524558044,0.0,2.0,-168.0,0,0.484,832.0,71.4,3
1315503,10524566043,0.0,1.0,-168.0,1,0.477,832.0,71.4,3
1315504,10524574043,0.0,1.0,-168.0,0,0.476,832.0,71.4,3
1315505,10524582045,0.0,1.0,-168.0,0,0.475,832.0,71.4,3
1315506,10524590044,0.0,1.0,-167.0,0,0.48,832.0,71.4,3
1315507,10524598045,0.0,0.0,-167.0,1,0.473,832.0,71.4,3
1315508,10524606043,0.0,0.0,-166.0,0,0.478,832.0,71.4,3
1315509,10524614046,0.0,0.0,-165.0,0,0.476,800.0,75.0,3
1315510,10524622045,0.0,0.0,-164.0,0,0.475,800.0,75.0,3
1315511,10524630043,0.0,0.0,-163.0,0,0.473,800.0,75.0,3
1315512,10524638043,0.0,0.0,-162.0,0,0.472,800.0,75.0,3
1315513,10524646043,0.0,0.0,-161.0,0,0.471,800.0,75.0,3
1315514,10524654043,0.0,0.0,-160.0,0,0.47,800.0,75.0,3
1315515,10524662043,0.0,0.0,-159.0,0,0.468,800.0,75.0,3
1315516,10524670044,0.0,0.0,-158.0,0,0.467,800.0,75.0,3
1315517,10524678043,0.0,0.0,-157.0,0,0.466,800.0,75.0,3
1315518,10524686044,0.0,0.0,-156.0,0,0.465,800.0,75.0,3
1315519,10524694043,0.0,0.0,-155.0,0,0.464,800.0,75.0,3
1315520,10524702043,0.0,0.0,-154.0,0,0.463,800.0,75.0,3
1315521,10524710043,4.0,1.0,-153.0,0,0.462,800.0,75.0,1
1315522,10524718043,11.0,3.0,-151.0,0,0.467,800.0,75.0,1
1315523,10524726043,12.0,5.0,-149.0,0,0.465,800.0,75.0,1
1315524,10524734043,19.0,9.0,-146.0,0,0.468,800.0,75.0,1
1315525,10524742045,21.0,12.0,-143.0,0,0.465,800.0,75.0,1
1315526,10524750047,27.0,15.0,-139.0,0,0.468,800.0,75.0,1
1315527,10524758043,29.0,19.0,-136.0,0,0.458,800.0,75.0,1
1315528,10524766043,39.0,24.0,-132.0,0,0.461,800.0,75.0,1
1315529,10524774044,40.0,28.0,-127.0,0,0.463,800.0,75.0,1
1315530,10524782044,45.0,32.0,-123.0,0,0.452,800.0,75.0,1
1315531,10524790047,51.0,36.0,-118.0,0,0.453,800.0,75.0,1
1315532,10524798047,57.0,41.0,-113.0,0,0.448,800.0,75.0,1
1315533,10524806043,60.0,46.0,-108.0,0,0.443,800.0,75.0,1
1315534,10524814044,64.0,50.0,-103.0,0,0.438,800.0,75.0,1
1315535,10524822047,68.0,55.0,-98.0,0,0.433,800.0,75.0,1
1315536,10524830043,69.0,58.0,-93.0,0,0.428,800.0,75.0,1
1315537,10524838043,72.0,61.0,-88.0,0,0.423,800.0,75.0,1
1315538,10524846043,71.0,64.0,-84.0,0,0.412,800.0,75.0,1
1315539,10524854043,77.0,67.0,-81.0,0,0.402,800.0,75.0,1
1315540,10524862043,80.0,70.0,-77.0,0,0.405,800.0,75.0,1
1315541,10524870046,75.0,71.0,-74.0,0,0.395,800.0,75.0,1
1315542,10524878044,80.0,73.0,-71.0,0,0.392,800.0,75.0,1
1315543,10524886043,84.0,76.0,-68.0,0,0.39,800.0,75.0,1
1315544,10524894045,87.0,79.0,-65.0,0,0.387,800.0,75.0,1
1315545,10524902047,92.0,82.0,-61.0,0,0.39,800.0,75.0,1
1315546,10524910043,100.0,86.0,-58.0,0,0.38,800.0,75.0,1
1315547,10524918046,113.0,93.0,-53.0,0,0.39,800.0,75.0,1
1315548,10524926043,135.0,103.0,-47.0,0,0.391,800.0,75.0,1
1315549,10524934045,157.0,116.0,-39.0,0,0.398,800.0,75.0,1
1315550,10524942043,188.0,134.0,-28.0,0,0.409,800.0,75.0,1
1315551,10524950046,223.0,155.0,-14.0,0,0.418,800.0,75.0,1
1315552,10524958043,272.0,184.0,4.0,0,0.449,800.0,75.0,1
1315553,10524966045,319.0,216.0,26.0,0,0.495,800.0,75.0,1
1315554,10524974047,371.0,254.0,52.0,0,0.544,800.0,75.0,1
1315555,10524982043,415.0,293.0,82.0,0,0.594,800.0,75.0,1
1315556,10524990044,466.0,335.0,114.0,0,0.637,800.0,75.0,1
1315557,10524998047,509.0,377.0,149.0,0,0.685,800.0,75.0,1
1315558,10525006043,549.0,419.0,186.0,0,0.729,800.0,75.0,1
1315559,10525014044,583.0,459.0,223.0,0,0.763,800.0,75.0,1
1315560,10525022046,607.0,495.0,258.0,0,0.785,800.0,75.0,1
1315561,10525030045,633.0,528.0,293.0,0,0.811,800.0,75.0,1
1315562,10525038044,650.0,558.0,325.0,0,0.819,800.0,75.0,1
1315563,10525046046,663.0,583.0,355.0,0,0.826,800.0,75.0,1
1315564,10525054045,667.0,604.0,381.0,0,0.818,800.0,75.0,1
1315565,10525062043,663.0,618.0,403.0,0,0.804,800.0,75.0,1
1315566,10525070046,655.0,627.0,420.0,0,0.778,800.0,75.0,1
1315567,10525078046,636.0,629.0,432.0,0,0.748,800.0,75.0,1
1315568,10525086044,622.0,627.0,439.0,0,0.715,800.0,75.0,1
1315569,10525094045,600.0,621.0,442.0,0,0.688,800.0,75.0,1
1315570,10525102044,576.0,610.0,440.0,1,0.679,800.0,75.0,1
1315571,10525110043,554.0,596.0,434.0,0,0.701,800.0,75.0,1
1315572,10525118043,520.0,578.0,423.0,0,0.728,800.0,75.0,1
1315573,10525126043,484.0,555.0,408.0,0,0.747,800.0,75.0,1
1315574,10525134043,451.0,530.0,390.0,0,0.756,800.0,75.0,1
1315575,10525142043,410.0,501.0,368.0,0,0.768,800.0,75.0,1
1315576,10525150043,372.0,470.0,343.0,0,0.768,800.0,75.0,1
1315577,10525158043,332.0,436.0,315.0,0,0.764,800.0,75.0,1
1315578,10525166043,292.0,401.0,284.0,0,0.753,800.0,75.0,1
1315579,10525174043,254.0,366.0,252.0,0,0.73,800.0,75.0,1
1315580,10525182043,217.0,330.0,219.0,0,0.704,800.0,75.0,1
1315581,10525190044,187.0,295.0,185.0,0,0.676,800.0,75.0,1
1315582,10525198043,153.0,261.0,150.0,0,0.645,800.0,75.0,1
1315583,10525206043,126.0,228.0,116.0,0,0.608,800.0,75.0,1
1315584,10525214043,102.0,197.0,84.0,0,0.57,800.0,75.0,1
1315585,10525222046,82.0,169.0,52.0,0,0.54,800.0,75.0,1
1315586,10525230044,66.0,144.0,23.0,0,0.501,800.0,75.0,1
1315587,10525238043,48.0,121.0,-5.0,0,0.507,800.0,75.0,1
1315588,10525246043,37.0,101.0,-30.0,0,0.513,800.0,75.0,1
1315589,10525254046,27.0,83.0,-53.0,0,0.523,800.0,75.0,1
1315590,10525262044,20.0,68.0,-74.0,0,0.531,800.0,75.0,1
1315591,10525270046,13.0,54.0,-92.0,0,0.53,800.0,75.0,1
1315592,10525278045,6.0,43.0,-108.0,0,0.533,800.0,75.0,1
1315593,10525286045,0.0,32.0,-122.0,0,0.534,800.0,75.0,3
1315594,10525294043,0.0,24.0,-134.0,0,0.532,801.6,75.0,3
1315595,10525302043,0.0,19.0,-144.0,0,0.528,801.6,75.0,3
1315596,10525310043,0.0,14.0,-152.0,0,0.522,801.6,75.0,3
1315597,10525318043,0.0,11.0,-159.0,0,0.522,801.6,75.0,3
1315598,10525326043,0.0,8.0,-164.0,0,0.513,801.6,75.0,3
1315599,10525334043,0.0,6.0,-168.0,0,0.509,801.6,75.0,3
1315600,10525342046,0.0,5.0,-170.0,0,0.497,801.6,75.0,3
1315601,10525350044,0.0,4.0,-172.0,0,0.498,801.6,75.0,3
1315602,10525358047,0.0,3.0,-174.0,0,0.499,801.6,75.0,3
1315603,10525366044,0.0,2.0,-174.0,1,0.486,801.6,75.0,3
1315604,10525374043,0.0,2.0,-175.0,0,0.492,801.6,75.0,3
1315605,10525382043,0.0,1.0,-175.0,1,0.485,801.6,75.0,3
1315606,10525390043,0.0,1.0,-175.0,0,0.484,801.6,75.0,3
1315607,10525398044,0.0,1.0,-174.0,0,0.489,801.6,75.0,3
1315608,10525406046,0.0,1.0,-174.0,1,0.482,801.6,75.0,3
1315609,10525414045,0.0,0.0,-173.0,0,0.487,801.6,75.0,3
1315610,10525422045,0.0,0.0,-172.0,0,0.486,801.6,75.0,3
1315611,10525430045,0.0,0.0,-171.0,0,0.484,801.6,75.0,3
1315612,10525438047,0.0,0.0,-170.0,0,0.483,801.6,75.0,3
1315613,10525446044,0.0,0.0,-169.0,0,0.482,801.6,75.0,3
1315614,10525454046,0.0,0.0,-168.0,0,0.481,801.6,75.0,3
1315615,10525462043,0.0,0.0,-167.0,0,0.48,801.6,75.0,3
1315616,10525470044,0.0,0.0,-166.0,0,0.479,801.6,75.0,3
1315617,10525478045,0.0,0.0,-165.0,0,0.478,801.6,75.0,3
1315618,10525486043,0.0,0.0,-164.0,0,0.477,801.6,75.0,3
1315619,10525494045,0.0,0.0,-163.0,0,0.476,801.6,75.0,3
1315620,10525502043,0.0,0.0,-162.0,0,0.475,801.6,75.0,3
1315621,10525510045,0.0,0.0,-161.0,0,0.474,801.6,75.0,3
1315622,10525518047,0.0,0.0,-160.0,0,0.473,801.6,75.0,3
1315623,10525526043,0.0,0.0,-159.0,0,0.472,801.6,75.0,3
1315624,10525534047,0.0,0.0,-158.0,0,0.471,801.6,75.0,3
1315625,10525542044,0.0,0.0,-157.0,0,0.47,801.6,75.0,3
1315626,10525550047,0.0,0.0,-156.0,0,0.469,801.6,75.0,3
1315627,10525558044,0.0,0.0,-155.0,0,0.468,801.6,75.0,3
1315628,10525566047,0.0,0.0,-154.0,0,0.467,801.6,75.0,3
1315629,10525574043,0.0,0.0,-153.0,0,0.466,801.6,75.0,3
1315630,10525582047,1.0,0.0,-152.0,0,0.465,801.6,75.0,1
1315631,10525590043,8.0,2.0,-150.0,0,0.47,801.6,75.0,1
1315632,10525598047,14.0,5.0,-148.0,0,0.468,801.6,75.0,1
1315633,10525606046,21.0,9.0,-145.0,0,0.471,803.2,75.0,1
1315634,10525614046,29.0,14.0,-141.0,0,0.474,803.2,75.0,1
1315635,10525622043,32.0,18.0,-137.0,0,0.47,803.2,75.0,1
1315636,10525630043,41.0,24.0,-132.0,0,0.472,803.2,75.0,1
1315637,10525638043,46.0,29.0,-127.0,0,0.467,803.2,75.0,1
1315638,10525646043,52.0,35.0,-121.0,0,0.467,803.2,75.0,1
1315639,10525654043,59.0,41.0,-116.0,0,0.455,803.2,75.0,1
1315640,10525662046,60.0,45.0,-110.0,0,0.456,803.2,75.0,1
1315641,10525670045,65.0,50.0,-104.0,0,0.45,803.2,75.0,1
1315642,10525678043,72.0,55.0,-99.0,0,0.438,803.2,75.0,1
1315643,10525686043,74.0,60.0,-93.0,0,0.439,803.2,75.0,1
1315644,10525694046,79.0,65.0,-88.0,0,0.426,803.2,75.0,1
1315645,10525702043,81.0,69.0,-83.0,0,0.421,803.2,75.0,1
1315646,10525710043,80.0,71.0,-78.0,0,0.416,803.2,75.0,1
1315647,10525718047,83.0,74.0,-74.0,0,0.405,803.2,75.0,1
1315648,10525726045,84.0,77.0,-70.0,0,0.401,803.2,75.0,1
1315649,10525734045,88.0,79.0,-66.0,0,0.398,803.2,75.0,1
1315650,10525742044,89.0,82.0,-63.0,0,0.388,803.2,75.0,1
1315651,10525750043,92.0,84.0,-60.0,0,0.385,803.2,75.0,1
1315652,10525758043,100.0,88.0,-56.0,0,0.388,803.2,75.0,1
1315653,10525766043,110.0,93.0,-52.0,0,0.384,803.2,75.0,1
1315654,10525774043,122.0,100.0,-47.0,0,0.387,803.2,75.0,1
1315655,10525782045,144.0,111.0,-41.0,0,0.388,803.2,75.0,1
1315656,10525790043,168.0,125.0,-32.0,0,0.401,803.2,75.0,1
1315657,10525798044,204.0,144.0,-20.0,0,0.412,803.2,75.0,1
1315658,10525806043,246.0,169.0,-5.0,0,0.419,803.2,75.0,1
1315659,10525814043,293.0,199.0,15.0,0,0.469,803.2,75.0,1
1315660,10525822044,341.0,233.0,38.0,0,0.51,803.2,75.0,1
1315661,10525830043,392.0,272.0,66.0,0,0.565,803.2,75.0,1
1315662,10525838043,441.0,313.0,97.0,0,0.611,803.2,75.0,1
1315663,10525846046,494.0,357.0,131.0,0,0.658,803.2,75.0,1
1315664,10525854046,540.0,401.0,168.0,0,0.707,803.2,75.0,1
1315665,10525862043,580.0,445.0,206.0,0,0.747,803.2,75.0,1
1315666,10525870043,617.0,486.0,244.0,0,0.78,803.2,75.0,1
1315667,10525878044,648.0,526.0,282.0,0,0.81,803.2,75.0,1
1315668,10525886043,668.0,560.0,319.0,0,0.831,803.2,75.0,1
1315669,10525894045,686.0,591.0,352.0,0,0.835,803.2,75.0,1
1315670,10525902047,693.0,615.0,383.0,0,0.841,803.2,75.0,1
1315671,10525910043,698.0,635.0,409.0,0,0.827,803.2,75.0,1
1315672,10525918043,694.0,650.0,431.0,0,0.813,803.2,75.0,1
1315673,10525926043,682.0,657.0,448.0,0,0.786,803.2,75.0,1
1315674,10525934043,670.0,661.0,460.0,0,0.756,803.2,75.0,1
1315675,10525942044,649.0,658.0,467.0,0,0.722,803.2,75.0,1
1315676,10525950043,628.0,651.0,469.0,0,0.688,803.2,75.0,1
1315677,10525958046,597.0,638.0,466.0,1,0.693,803.2,75.0,1
1315678,10525966043,569.0,621.0,458.0,0,0.723,803.2,75.0,1
1315679,10525974043,536.0,600.0,446.0,0,0.746,803.2,75.0,1
1315680,10525982044,496.0,575.0,429.0,0,0.773,803.2,75.0,1
1315681,10525990043,459.0,547.0,409.0,0,0.783,803.2,75.0,1
1315682,10525998043,418.0,516.0,384.0,0,0.8,803.2,75.0,1
1315683,10526006043,376.0,482.0,357.0,0,0.794,803.2,75.0,1
1315684,10526014046,333.0,446.0,326.0,0,0.792,803.2,75.0,1
1315685,10526022043,292.0,408.0,293.0,0,0.776,803.2,75.0,1
1315686,10526030043,253.0,371.0,259.0,0,0.752,803.2,75.0,1
1315687,10526038043,216.0,333.0,223.0,0,0.727,803.2,75.0,1
1315688,10526046046,179.0,296.0,187.0,0,0.693,803.2,75.0,1
1315689,10526054043,149.0,260.0,151.0,0,0.658,803.2,75.0,1
1315690,10526062043,118.0,226.0,115.0,0,0.622,803.2,75.0,1
1315691,10526070043,94.0,194.0,80.0,0,0.584,803.2,75.0,1
1315692,10526078043,69.0,164.0,47.0,0,0.544,803.2,75.0,1
1315693,10526086044,52.0,137.0,15.0,0,0.511,803.2,75.0,1
1315694,10526094043,36.0,112.0,-14.0,0,0.513,803.2,75.0,1
1315695,10526102045,23.0,91.0,-41.0,0,0.529,803.2,75.0,1
1315696,10526110044,12.0,71.0,-65.0,0,0.536,803.2,75.0,1
1315697,10526118043,0.0,54.0,-87.0,0,0.547,803.2,75.0,3
1315698,10526126047,0.0,41.0,-106.0,0,0.548,803.2,75.0,3
1315699,10526134046,0.0,31.0,-123.0,0,0.552,803.2,75.0,3
1315700,10526142043,0.0,24.0,-136.0,0,0.539,803.2,75.0,3
1315701,10526150046,0.0,18.0,-147.0,0,0.536,803.2,75.0,3
1315702,10526158043,0.0,14.0,-156.0,0,0.531,803.2,75.0,3
1315703,10526166044,0.0,10.0,-163.0,0,0.524,803.2,75.0,3
1315704,10526174043,0.0,8.0,-168.0,0,0.514,803.2,75.0,3
1315705,10526182047,0.0,6.0,-172.0,0,0.511,803.2,75.0,3
1315706,10526190043,0.0,4.0,-175.0,0,0.507,803.2,75.0,3
1315707,10526198043,0.0,3.0,-177.0,0,0.502,803.2,75.0,3
1315708,10526206043,0.0,3.0,-178.0,0,0.496,803.2,75.0,3
1315709,10526214043,0.0,2.0,-179.0,0,0.496,803.2,75.0,3
1315710,10526222044,0.0,1.0,-179.0,1,0.49,803.2,75.0,3
1315711,10526230043,0.0,1.0,-179.0,0,0.489,811.2,75.0,3
1315712,10526238043,0.0,1.0,-179.0,0,0.489,811.2,75.0,3
1315713,10526246043,0.0,1.0,-178.0,0,0.494,811.2,75.0,3
1315714,10526254045,0.0,0.0,-178.0,1,0.488,811.2,75.0,3
1315715,10526262044,0.0,0.0,-177.0,0,0.493,811.2,75.0,3
1315716,10526270045,0.0,0.0,-176.0,0,0.492,811.2,75.0,3
1315717,10526278043,0.0,0.0,-175.0,0,0.491,811.2,75.0,3
1315718,10526286043,0.0,0.0,-174.0,0,0.49,811.2,75.0,3
1315719,10526294043,0.0,0.0,-173.0,0,0.489,811.2,75.0,3
1315720,10526302047,0.0,0.0,-172.0,0,0.488,811.2,75.0,3
1315721,10526310046,0.0,0.0,-171.0,0,0.487,811.2,75.0,3
1315722,10526318050,0.0,0.0,-170.0,0,0.486,811.2,75.0,3
1315723,10526326045,0.0,0.0,-169.0,0,0.485,811.2,75.0,3
1315724,10526334044,0.0,0.0,-168.0,0,0.484,811.2,75.0,3
1315725,10526342047,0.0,0.0,-167.0,0,0.483,811.2,75.0,3
1315726,10526350043,0.0,0.0,-166.0,0,0.482,811.2,75.0,3
1315727,10526358043,0.0,0.0,-165.0,0,0.481,811.2,75.0,3
1315728,10526366043,0.0,0.0,-164.0,0,0.48,811.2,75.0,3
1315729,10526374043,0.0,0.0,-163.0,0,0.479,811.2,75.0,3
1315730,10526382043,0.0,0.0,-161.0,0,0.483,811.2,75.0,3
1315731,10526390044,0.0,0.0,-160.0,0,0.476,811.2,75.0,3
1315732,10526398046,0.0,0.0,-159.0,0,0.475,811.2,75.0,3
1315733,10526406043,0.0,0.0,-158.0,0,0.474,811.2,75.0,3
1315734,10526414043,0.0,0.0,-157.0,0,0.473,811.2,75.0,3
1315735,10526422043,0.0,0.0,-156.0,0,0.472,811.2,75.0,3
1315736,10526430043,0.0,0.0,-155.0,0,0.471,811.2,75.0,3
1315737,10526438043,0.0,0.0,-154.0,0,0.47,811.2,75.0,3
1315738,10526446043,0.0,0.0,-153.0,0,0.469,811.2,75.0,3
1315739,10526454043,0.0,0.0,-152.0,0,0.468,811.2,75.0,3
1315740,10526462047,0.0,0.0,-151.0,0,0.0,0.0,0.0,2
1315741,10526470043,4.0,1.0,-150.0,0,0.0,0.0,0.0,0
1315742,10526478043,11.0,3.0,-148.0,0,0.0,0.0,0.0,0
1315743,10526486046,16.0,6.0,-145.0,0,0.0,0.0,0.0,0
1315744,10526494043,23.0,10.0,-142.0,0,0.0,0.0,0.0,0
1315745,10526502047,28.0,15.0,-139.0,0,0.0,0.0,0.0,0
1315746,10526510043,36.0,20.0,-134.0,0,0.0,0.0,0.0,0
1315747,10526518046,38.0,24.0,-130.0,0,0.0,0.0,0.0,0
1315748,10526526043,46.0,30.0,-125.0,0,0.0,0.0,0.0,0
1315749,10526534047,51.0,35.0,-119.0,0,0.0,0.0,0.0,0
1315750,10526542043,54.0,39.0,-114.0,0,0.0,0.0,0.0,0
1315751,10526550047,60.0,44.0,-109.0,0,0.0,0.0,0.0,0
1315752,10526558043,64.0,49.0,-103.0,0,0.0,0.0,0.0,0
1315753,10526566046,68.0,54.0,-98.0,0,0.0,0.0,0.0,0
1315754,10526574043,73.0,58.0,-93.0,0,0.0,0.0,0.0,0
1315755,10526582047,74.0,62.0,-88.0,0,0.0,0.0,0.0,0
1315756,10526590043,77.0,66.0,-83.0,0,0.0,0.0,0.0,0
1315757,10526598046,78.0,69.0,-79.0,0,0.0,0.0,0.0,0
1315758,10526606043,80.0,71.0,-75.0,0,0.0,0.0,0.0,0
1315759,10526614046,80.0,74.0,-71.0,0,0.0,0.0,0.0,0
1315760,10526622043,83.0,76.0,-68.0,0,0.0,0.0,0.0,0
1315761,10526630046,85.0,78.0,-65.0,0,0.0,0.0,0.0,0
1315762,10526638043,88.0,80.0,-62.0,0,0.0,0.0,0.0,0
1315763,10526646047,92.0,83.0,-59.0,0,0.0,0.0,0.0,0
1315764,10526654043,96.0,86.0,-55.0,0,0.0,0.0,0.0,0
1315765,10526662047,100.0,90.0,-52.0,0,0.0,0.0,0.0,0
1315766,10526670043,108.0,94.0,-48.0,0,0.0,0.0,0.0,0
1315767,10526678046,124.0,101.0,-44.0,0,0.0,0.0,0.0,0
1315768,10526686043,142.0,111.0,-37.0,0,0.0,0.0,0.0,0
1315769,10526694043,166.0,124.0,-29.0,0,0.0,0.0,0.0,0
1315770,10526702043,197.0,142.0,-18.0,0,0.0,0.0,0.0,0
1315771,10526710043,239.0,166.0,-4.0,0,0.0,0.0,0.0,0
1315772,10526718046,284.0,194.0,15.0,0,0.0,0.0,0.0,1
1315773,10526726043,333.0,228.0,37.0,0,0.0,0.0,0.0,1
1315774,10526734045,383.0,266.0,64.0,0,0.0,0.0,0.0,1
1315775,10526742046,441.0,308.0,95.0,0,0.0,0.0,0.0,1
1315776,10526750047,496.0,354.0,129.0,0,0.0,0.0,0.0,1
1315777,10526758045,544.0,400.0,167.0,0,0.0,0.0,0.0,1
1315778,10526766043,588.0,445.0,206.0,0,0.0,0.0,0.0,1
1315779,10526774043,626.0,489.0,246.0,0,0.0,0.0,0.0,1
1315780,10526782043,656.0,530.0,285.0,0,0.0,0.0,0.0,1
1315781,10526790043,684.0,567.0,323.0,0,0.0,0.0,0.0,1
1315782,10526798043,701.0,600.0,359.0,0,0.0,0.0,0.0,1
1315783,10526806043,709.0,626.0,391.0,0,0.0,0.0,0.0,1
1315784,10526814043,711.0,647.0,419.0,0,0.0,0.0,0.0,1
1315785,10526822043,707.0,661.0,442.0,0,0.0,0.0,0.0,1
1315786,10526830043,697.0,670.0,460.0,0,0.0,0.0,0.0,1
1315787,10526838043,680.0,672.0,472.0,0,0.0,0.0,0.0,1
1315788,10526846043,660.0,669.0,480.0,0,0.0,0.0,0.0,1
1315789,10526854043,636.0,661.0,481.0,0,0.0,0.0,0.0,1
1315790,10526862043,607.0,648.0,478.0,0,0.0,0.0,0.0,1
1315791,10526870043,575.0,630.0,470.0,0,0.0,0.0,0.0,1
1315792,10526878043,541.0,609.0,457.0,0,0.0,0.0,0.0,1
1315793,10526886043,504.0,583.0,440.0,0,0.0,0.0,0.0,1
1315794,10526894043,464.0,554.0,418.0,0,0.0,0.0,0.0,1
1315795,10526902043,420.0,522.0,393.0,0,0.0,0.0,0.0,1
1315796,10526910043,379.0,487.0,365.0,0,0.0,0.0,0.0,1
1315797,10526918043,335.0,450.0,334.0,0,0.0,0.0,0.0,1
1315798,10526926043,293.0,412.0,300.0,0,0.0,0.0,0.0,1
1315799,10526934043,252.0,373.0,264.0,0,0.0,0.0,0.0,1
1315800,10526942043,214.0,335.0,228.0,0,0.0,0.0,0.0,1
1315801,10526950043,180.0,297.0,191.0,0,0.0,0.0,0.0,1
1315802,10526958043,148.0,261.0,154.0,0,0.0,0.0,0.0,1
1315803,10526966043,117.0,226.0,117.0,0,0.0,0.0,0.0,1
1315804,10526974043,93.0,194.0,82.0,0,0.741,0.0,0.0,1
1315805,10526982043,71.0,164.0,49.0,0,0.753,0.0,0.0,1
1315806,10526990044,52.0,137.0,17.0,0,0.763,0.0,0.0,1
1315807,10526998044,37.0,113.0,-12.0,0,0.76,0.0,0.0,1
1315808,10527006043,28.0,92.0,-39.0,0,0.758,0.0,0.0,1
1315809,10527014043,17.0,74.0,-63.0,0,0.749,0.0,0.0,1
1315810,10527022046,9.0,58.0,-84.0,0,0.738,0.0,0.0,1
1315811,10527030043,4.0,45.0,-103.0,0,0.729,0.0,0.0,1
1315812,10527038044,0.0,34.0,-119.0,0,0.715,0.0,0.0,3
1315813,10527046043,0.0,26.0,-133.0,0,0.704,0.0,0.0,3
1315814,10527054045,0.0,20.0,-144.0,0,0.687,0.0,0.0,3
1315815,10527062043,0.0,15.0,-153.0,0,0.674,0.0,0.0,3
1315816,10527070046,0.0,11.0,-160.0,0,0.661,0.0,0.0,3
1315817,10527078043,0.0,9.0,-166.0,0,0.651,0.0,0.0,3
1315818,10527086043,0.0,6.0,-170.0,0,0.636,0.0,0.0,3
1315819,10527094047,0.0,5.0,-173.0,0,0.626,0.0,0.0,3
1315820,10527102046,0.0,4.0,-175.0,0,0.615,0.0,0.0,3
1315821,10527110047,0.0,3.0,-177.0,0,0.609,0.0,0.0,3
1315822,10527118045,0.0,2.0,-178.0,0,0.598,0.0,0.0,3
1315823,10527126046,0.0,2.0,-178.0,1,0.588,0.0,0.0,3
1315824,10527134047,0.0,1.0,-178.0,0,0.581,0.0,0.0,3
1315825,10527142043,0.0,1.0,-178.0,0,0.575,0.0,0.0,3
1315826,10527150044,0.0,1.0,-178.0,0,0.57,0.0,0.0,3
1315827,10527158043,0.0,1.0,-177.0,0,0.568,0.0,0.0,3
1315828,10527166047,0.0,0.0,-176.0,0,0.562,0.0,0.0,3
1315829,10527174043,0.0,0.0,-176.0,1,0.553,0.0,0.0,3
1315830,10527182043,0.0,0.0,-175.0,0,0.552,0.0,0.0,3
1315831,10527190043,0.0,0.0,-174.0,0,0.547,0.0,0.0,3
1315832,10527198047,0.0,0.0,-173.0,0,0.543,0.0,0.0,3
1315833,10527206044,0.0,0.0,-172.0,0,0.538,0.0,0.0,3
1315834,10527214043,0.0,0.0,-171.0,0,0.534,0.0,0.0,3
1315835,10527222043,0.0,0.0,-170.0,0,0.529,0.0,0.0,3
1315836,10527230044,0.0,0.0,-169.0,0,0.525,0.0,0.0,3
1315837,10527238045,0.0,0.0,-168.0,0,0.521,0.0,0.0,3
1315838,10527246043,0.0,0.0,-166.0,0,0.522,0.0,0.0,3
1315839,10527254046,0.0,0.0,-165.0,0,0.513,0.0,0.0,3
1315840,10527262043,0.0,0.0,-164.0,0,0.51,0.0,0.0,3
1315841,10527270043,0.0,0.0,-163.0,0,0.506,0.0,0.0,3
1315842,10527278046,0.0,0.0,-162.0,0,0.503,0.0,0.0,3
1315843,10527286043,0.0,0.0,-161.0,0,0.5,0.0,0.0,3
1315844,10527294047,0.0,0.0,-160.0,0,0.497,0.0,0.0,3
1315845,10527302043,0.0,0.0,-159.0,0,0.494,0.0,0.0,3
1315846,10527310043,0.0,0.0,-158.0,0,0.491,0.0,0.0,3
1315847,10527318046,0.0,0.0,-157.0,0,0.488,0.0,0.0,3
1315848,10527326043,0.0,0.0,-156.0,0,0.485,0.0,0.0,3
1315849,10527334047,0.0,0.0,-155.0,0,0.482,0.0,0.0,3
1315850,10527342043,0.0,0.0,-154.0,0,0.48,0.0,0.0,3
1315851,10527350046,1.0,0.0,-153.0,0,0.477,0.0,0.0,1
1315852,10527358043,9.0,2.0,-151.0,0,0.479,0.0,0.0,1
1315853,10527366044,13.0,5.0,-149.0,0,0.476,0.0,0.0,1
1315854,10527374047,20.0,9.0,-146.0,0,0.477,0.0,0.0,1
1315855,10527382043,24.0,12.0,-143.0,0,0.473,0.0,0.0,1
1315856,10527390043,34.0,18.0,-138.0,0,0.479,0.0,0.0,1
1315857,10527398043,38.0,23.0,-134.0,0,0.469,0.0,0.0,1
1315858,10527406045,45.0,28.0,-129.0,0,0.469,0.0,0.0,1
1315859,10527414043,50.0,33.0,-123.0,0,0.469,0.0,0.0,1
1315860,10527422047,56.0,39.0,-118.0,0,0.457,0.0,0.0,1
1315861,10527430043,63.0,45.0,-112.0,0,0.457,0.0,0.0,1
1315862,10527438043,69.0,51.0,-106.0,0,0.451,0.0,0.0,1
1315863,10527446043,73.0,56.0,-100.0,0,0.445,0.0,0.0,1
1315864,10527454046,78.0,61.0,-94.0,0,0.439,0.0,0.0,1
1315865,10527462043,82.0,66.0,-88.0,0,0.433,0.0,0.0,1
1315866,10527470043,86.0,71.0,-82.0,0,0.427,0.0,0.0,1
1315867,10527478043,89.0,75.0,-77.0,0,0.416,0.0,0.0,1
1315868,10527486047,92.0,79.0,-72.0,0,0.412,0.0,0.0,1
1315869,10527494046,93.0,83.0,-67.0,0,0.407,0.0,0.0,1
1315870,10527502043,97.0,86.0,-63.0,0,0.397,0.0,0.0,1
1315871,10527510043,100.0,90.0,-58.0,0,0.398,0.0,0.0,1
1315872,10527518046,97.0,91.0,-55.0,0,0.383,0.0,0.0,1
1315873,10527526044,100.0,93.0,-52.0,0,0.38,0.0,0.0,1
1315874,10527534046,101.0,95.0,-49.0,0,0.377,0.0,0.0,1
1315875,10527542043,102.0,97.0,-46.0,0,0.374,0.0,0.0,1
1315876,10527550046,105.0,99.0,-44.0,0,0.366,0.0,0.0,1
1315877,10527558043,104.0,100.0,-41.0,0,0.37,0.0,0.0,1
1315878,10527566043,108.0,102.0,-39.0,0,0.361,0.0,0.0,1
1315879,10527574043,116.0,105.0,-37.0,0,0.359,0.0,0.0,1
1315880,10527582047,125.0,110.0,-33.0,0,0.368,0.0,0.0,1
1315881,10527590047,141.0,118.0,-29.0,0,0.365,0.0,0.0,1
1315882,10527598043,160.0,128.0,-23.0,0,0.373,0.0,0.0,1
1315883,10527606043,187.0,142.0,-14.0,0,0.385,0.0,0.0,1
1315884,10527614046,221.0,161.0,-3.0,0,0.39,0.0,0.0,1
1315885,10527622043,260.0,185.0,12.0,0,0.42,0.0,0.0,1
1315886,10527630044,306.0,215.0,31.0,0,0.463,0.0,0.0,1
1315887,10527638047,351.0,248.0,54.0,0,0.508,0.0,0.0,1
1315888,10527646043,404.0,286.0,81.0,0,0.556,0.0,0.0,1
1315889,10527654043,453.0,326.0,111.0,0,0.599,0.0,0.0,1
1315890,10527662043,498.0,368.0,144.0,0,0.644,0.0,0.0,1
1315891,10527670043,543.0,410.0,180.0,0,0.689,0.0,0.0,1
1315892,10527678044,579.0,451.0,216.0,0,0.721,0.0,0.0,1
1315893,10527686043,609.0,489.0,252.0,0,0.751,0.0,0.0,1
1315894,10527694046,634.0,524.0,287.0,0,0.773,0.0,0.0,1
1315895,10527702047,653.0,556.0,321.0,0,0.791,0.0,0.0,1
1315896,10527710043,665.0,582.0,351.0,0,0.791,0.0,0.0,1
1315897,10527718043,671.0,604.0,378.0,0,0.789,0.0,0.0,1
1315898,10527726045,670.0,620.0,401.0,0,0.777,0.0,0.0,1
1315899,10527734047,664.0,630.0,420.0,0,0.76,0.0,0.0,1
1315900,10527742043,651.0,635.0,434.0,0,0.733,0.0,0.0,1
1315901,10527750047,632.0,635.0,443.0,0,0.702,0.0,0.0,1
1315902,10527758043,608.0,628.0,446.0,0,0.663,0.0,0.0,1
1315903,10527766043,580.0,616.0,444.0,1,0.653,0.0,0.0,1
1315904,10527774047,554.0,601.0,438.0,0,0.671,0.0,0.0,1
1315905,10527782043,518.0,581.0,427.0,0,0.694,0.0,0.0,1
1315906,10527790046,480.0,557.0,412.0,0,0.709,0.0,0.0,1
1315907,10527798043,441.0,529.0,392.0,0,0.725,0.0,0.0,1
1315908,10527806046,404.0,498.0,368.0,0,0.729,0.0,0.0,1
1315909,10527814043,362.0,465.0,342.0,0,0.718,0.0,0.0,1
1315910,10527822046,318.0,430.0,312.0,0,0.711,0.0,0.0,1
1315911,10527830043,276.0,392.0,280.0,0,0.691,0.0,0.0,1
1315912,10527838046,237.0,355.0,246.0,0,0.667,0.0,0.0,1
1315913,10527846046,202.0,318.0,211.0,0,0.637,0.0,0.0,1
1315914,10527854045,167.0,281.0,175.0,0,0.606,0.0,0.0,1
1315915,10527862043,138.0,246.0,139.0,0,0.572,0.0,0.0,1
1315916,10527870046,111.0,214.0,104.0,0,0.536,0.0,0.0,1
1315917,10527878043,88.0,183.0,71.0,0,0.5,0.0,0.0,1
1315918,10527886045,67.0,155.0,39.0,0,0.508,0.0,0.0,1
1315919,10527894045,51.0,130.0,9.0,0,0.524,0.0,0.0,1
1315920,10527902043,37.0,107.0,-18.0,0,0.533,0.0,0.0,1
1315921,10527910044,28.0,88.0,-43.0,0,0.546,0.0,0.0,1
1315922,10527918046,20.0,72.0,-66.0,0,0.556,0.0,0.0,1
1315923,10527926044,12.0,57.0,-86.0,0,0.558,0.0,0.0,1
1315924,10527934046,12.0,46.0,-103.0,0,0.556,0.0,0.0,1
1315925,10527942043,2.0,35.0,-118.0,0,0.558,0.0,0.0,1
1315926,10527950043,0.0,27.0,-130.0,0,0.55,0.0,0.0,3
1315927,10527958043,0.0,20.0,-141.0,0,0.553,0.0,0.0,3
1315928,10527966043,0.0,15.0,-150.0,0,0.549,0.0,0.0,3
1315929,10527974043,0.0,12.0,-157.0,0,0.542,0.0,0.0,3
1315930,10527982043,0.0,9.0,-162.0,0,0.534,0.0,0.0,3
1315931,10527990047,0.0,7.0,-166.0,0,0.531,0.0,0.0,3
1315932,10527998045,0.0,5.0,-169.0,0,0.527,0.0,0.0,3
1315933,10528006043,0.0,4.0,-172.0,0,0.528,0.0,0.0,3
1315934,10528014044,0.0,3.0,-173.0,0,0.517,0.0,0.0,3
1315935,10528022043,0.0,2.0,-174.0,0,0.517,0.0,0.0,3
1315936,10528030046,0.0,2.0,-175.0,0,0.517,0.0,0.0,3
1315937,10528038043,0.0,1.0,-175.0,1,0.51,0.0,0.0,3
1315938,10528046047,0.0,1.0,-175.0,0,0.509,0.0,0.0,3
1315939,10528054043,0.0,1.0,-174.0,0,0.512,0.0,0.0,3
1315940,10528062044,0.0,1.0,-174.0,1,0.506,0.0,0.0,3
1315941,10528070046,0.0,0.0,-173.0,0,0.509,0.0,0.0,3
1315942,10528078045,0.0,0.0,-172.0,0,0.507,0.0,0.0,3
1315943,10528086043,0.0,0.0,-171.0,0,0.505,0.0,0.0,3
1315944,10528094043,0.0,0.0,-171.0,1,0.499,0.0,0.0,3
1315945,10528102043,0.0,0.0,-170.0,0,0.502,0.0,0.0,3
1315946,10528110043,0.0,0.0,-169.0,0,0.501,0.0,0.0,3
1315947,10528118046,0.0,0.0,-168.0,0,0.499,0.0,0.0,3
1315948,10528126043,0.0,0.0,-167.0,0,0.497,0.0,0.0,3
1315949,10528134043,0.0,0.0,-165.0,0,0.5,0.0,0.0,3
1315950,10528142043,0.0,0.0,-164.0,0,0.492,0.0,0.0,3
1315951,10528150047,0.0,0.0,-163.0,0,0.491,0.0,0.0,3
1315952,10528158043,0.0,0.0,-162.0,0,0.489,0.0,0.0,3
1315953,10528166046,0.0,0.0,-161.0,0,0.487,0.0,0.0,3
1315954,10528174043,0.0,0.0,-160.0,0,0.485,0.0,0.0,3
1315955,10528182047,0.0,0.0,-159.0,0,0.484,0.0,0.0,3
1315956,10528190043,0.0,0.0,-158.0,0,0.482,0.0,0.0,3
1315957,10528198047,0.0,0.0,-157.0,0,0.48,0.0,0.0,3
1315958,10528206043,0.0,0.0,-156.0,0,0.479,0.0,0.0,3
1315959,10528214047,2.0,0.0,-155.0,0,0.477,0.0,0.0,1
1315960,10528222043,4.0,1.0,-154.0,0,0.475,0.0,0.0,1
1315961,10528230047,13.0,4.0,-151.0,0,0.484,0.0,0.0,1
1315962,10528238047,17.0,7.0,-149.0,0,0.475,0.0,0.0,1
1315963,10528246044,23.0,11.0,-146.0,0,0.478,0.0,0.0,1
1315964,10528254043,29.0,15.0,-142.0,0,0.48,0.0,0.0,1
1315965,10528262043,34.0,20.0,-138.0,0,0.475,0.0,0.0,1
1315966,10528270044,39.0,25.0,-133.0,0,0.476,0.0,0.0,1
1315967,10528278043,44.0,29.0,-128.0,0,0.471,0.0,0.0,1
1315968,10528286043,48.0,34.0,-123.0,0,0.466,0.0,0.0,1
1315969,10528294043,54.0,39.0,-118.0,0,0.461,0.0,0.0,1
1315970,10528302043,58.0,43.0,-113.0,0,0.455,0.0,0.0,1
1315971,10528310043,62.0,48.0,-108.0,0,0.45,0.0,0.0,1
1315972,10528318044,68.0,53.0,-102.0,0,0.451,0.0,0.0,1
1315973,10528326043,70.0,57.0,-97.0,0,0.439,0.0,0.0,1
1315974,10528334043,73.0,61.0,-92.0,0,0.434,0.0,0.0,1
1315975,10528342043,77.0,65.0,-88.0,0,0.423,0.0,0.0,1
1315976,10528350043,81.0,69.0,-83.0,0,0.425,0.0,0.0,1
1315977,10528358043,83.0,72.0,-78.0,0,0.42,0.0,0.0,1
1315978,10528366043,88.0,76.0,-74.0,0,0.409,0.0,0.0,1
1315979,10528374043,92.0,80.0,-70.0,0,0.405,0.0,0.0,1
1315980,10528382043,94.0,83.0,-65.0,0,0.407,0.0,0.0,1
1315981,10528390044,96.0,86.0,-61.0,0,0.396,0.0,0.0,1
1315982,10528398043,100.0,90.0,-58.0,0,0.387,0.0,0.0,1
1315983,10528406043,100.0,92.0,-54.0,0,0.389,0.0,0.0,1
1315984,10528414043,102.0,95.0,-51.0,0,0.38,0.0,0.0,1
1315985,10528422043,105.0,97.0,-48.0,0,0.377,0.0,0.0,1
1315986,10528430043,108.0,100.0,-44.0,0,0.38,0.0,0.0,1
1315987,10528438043,109.0,102.0,-42.0,0,0.365,0.0,0.0,1
1315988,10528446043,115.0,105.0,-39.0,0,0.368,0.0,0.0,1
1315989,10528454043,116.0,108.0,-36.0,0,0.365,0.0,0.0,1
1315990,10528462043,116.0,110.0,-33.0,0,0.362,0.0,0.0,1
1315991,10528470043,119.0,112.0,-30.0,0,0.36,0.0,0.0,1
1315992,10528478046,119.0,114.0,-28.0,0,0.351,0.0,0.0,1
1315993,10528486045,120.0,115.0,-26.0,0,0.349,0.0,0.0,1
1315994,10528494045,127.0,118.0,-23.0,0,0.353,0.0,0.0,1
1315995,10528502043,122.0,119.0,-21.0,0,0.345,0.0,0.0,1
1315996,10528510046,127.0,121.0,-19.0,0,0.343,0.0,0.0,1
1315997,10528518043,133.0,124.0,-17.0,0,0.341,0.0,0.0,1
1315998,10528526046,143.0,129.0,-14.0,0,0.345,0.0,0.0,1
1315999,10528534043,155.0,135.0,-10.0,0,0.348,0.0,0.0,1
1316000,10528542045,172.0,144.0,-4.0,0,0.357,0.0,0.0,1
1316001,10528550043,199.0,157.0,3.0,0,0.361,0.0,0.0,1
1316002,10528558043,234.0,176.0,14.0,0,0.399,0.0,0.0,1
1316003,10528566043,274.0,200.0,28.0,0,0.434,0.0,0.0,1
1316004,10528574045,321.0,229.0,47.0,0,0.486,0.0,0.0,1
1316005,10528582043,371.0,263.0,69.0,0,0.527,0.0,0.0,1
1316006,10528590046,424.0,302.0,96.0,0,0.582,0.0,0.0,1
1316007,10528598043,477.0,345.0,127.0,0,0.632,0.0,0.0,1
1316008,10528606045,528.0,389.0,162.0,0,0.684,0.0,0.0,1
1316009,10528614045,575.0,434.0,199.0,0,0.726,0.0,0.0,1
1316010,10528622045,618.0,479.0,237.0,0,0.764,0.0,0.0,1
1316011,10528630045,656.0,522.0,276.0,0,0.798,0.0,0.0,1
1316012,10528638046,689.0,562.0,315.0,0,0.826,0.0,0.0,1
1316013,10528646045,712.0,599.0,352.0,0,0.841,0.0,0.0,1
1316014,10528654043,732.0,631.0,387.0,0,0.851,0.0,0.0,1
1316015,10528662044,742.0,658.0,419.0,0,0.852,0.0,0.0,1
1316016,10528670043,746.0,679.0,446.0,0,0.838,0.0,0.0,1
1316017,10528678047,739.0,694.0,469.0,0,0.823,0.0,0.0,1
1316018,10528686043,727.0,702.0,487.0,0,0.796,0.0,0.0,1
1316019,10528694043,712.0,704.0,499.0,0,0.759,0.0,0.0,1
1316020,10528702045,690.0,701.0,506.0,0,0.726,0.0,0.0,1
1316021,10528710043,661.0,691.0,507.0,0,0.686,0.0,0.0,1
1316022,10528718044,632.0,677.0,503.0,1,0.701,0.0,0.0,1
1316023,10528726043,601.0,658.0,494.0,0,0.73,0.0,0.0,1
1316024,10528734046,568.0,637.0,480.0,0,0.757,0.0,0.0,1
1316025,10528742045,528.0,610.0,462.0,0,0.774,0.0,0.0,1
1316026,10528750043,490.0,581.0,440.0,0,0.786,0.0,0.0,1
1316027,10528758043,447.0,549.0,415.0,0,0.789,0.0,0.0,1
1316028,10528766044,403.0,513.0,386.0,0,0.79,920.0,0.0,1
1316029,10528774043,357.0,475.0,353.0,0,0.784,920.0,0.0,1
1316030,10528782045,316.0,437.0,319.0,0,0.762,920.0,0.0,1
1316031,10528790043,269.0,396.0,283.0,0,0.738,920.0,0.0,1
1316032,10528798043,231.0,356.0,245.0,0,0.711,920.0,0.0,1
1316033,10528806043,196.0,317.0,206.0,0,0.676,920.0,0.0,1
1316034,10528814043,161.0,279.0,168.0,0,0.636,920.0,0.0,1
1316035,10528822043,127.0,242.0,130.0,0,0.599,920.0,0.0,1
1316036,10528830043,100.0,208.0,93.0,0,0.561,920.0,0.0,1
1316037,10528838043,72.0,175.0,57.0,0,0.526,920.0,0.0,1
1316038,10528846045,57.0,146.0,24.0,0,0.515,920.0,0.0,1
1316039,10528854047,40.0,121.0,-8.0,0,0.538,920.0,0.0,1
1316040,10528862043,23.0,97.0,-36.0,0,0.544,920.0,0.0,1
1316041,10528870046,13.0,77.0,-63.0,0,0.564,920.0,0.0,1
1316042,10528878044,6.0,59.0,-86.0,0,0.565,920.0,0.0,1
1316043,10528886043,0.0,45.0,-106.0,0,0.566,920.0,0.0,3
1316044,10528894043,0.0,34.0,-124.0,0,0.571,920.0,0.0,3
1316045,10528902047,0.0,26.0,-138.0,0,0.559,920.0,0.0,3
1316046,10528910043,0.0,20.0,-150.0,0,0.558,920.0,0.0,3
1316047,10528918043,0.0,15.0,-159.0,0,0.547,920.0,0.0,3
1316048,10528926046,0.0,11.0,-167.0,0,0.547,920.0,0.0,3
1316049,10528934045,0.0,9.0,-173.0,0,0.54,920.0,0.0,3
1316050,10528942044,0.0,6.0,-177.0,0,0.53,920.0,0.0,3
1316051,10528950046,0.0,5.0,-180.0,0,0.526,920.0,0.0,3
1316052,10528958043,0.0,4.0,-182.0,0,0.522,920.0,0.0,3
1316053,10528966043,0.0,3.0,-184.0,0,0.523,920.0,0.0,3
1316054,10528974043,0.0,2.0,-185.0,0,0.517,920.0,0.0,3
1316055,10528982043,0.0,2.0,-185.0,1,0.511,920.0,0.0,3
1316056,10528990045,0.0,1.0,-185.0,0,0.51,920.0,0.0,3
1316057,10528998043,0.0,1.0,-185.0,0,0.51,920.0,0.0,3
1316058,10529006043,0.0,1.0,-185.0,0,0.509,920.0,0.0,3
1316059,10529014043,0.0,1.0,-184.0,0,0.513,920.0,0.0,3
1316060,10529022043,0.0,0.0,-183.0,0,0.512,920.0,0.0,3
1316061,10529030043,0.0,0.0,-182.0,0,0.51,920.0,0.0,3
1316062,10529038047,0.0,0.0,-181.0,0,0.509,920.0,0.0,3
1316063,10529046043,0.0,0.0,-180.0,0,0.507,920.0,0.0,3
1316064,10529054044,0.0,0.0,-179.0,0,0.506,920.0,0.0,3
1316065,10529062043,0.0,0.0,-178.0,0,0.504,920.0,0.0,3
1316066,10529070043,0.0,0.0,-177.0,0,0.503,920.0,0.0,3
1316067,10529078043,0.0,0.0,-176.0,0,0.501,952.0,0.0,3
1316068,10529086045,0.0,0.0,-175.0,0,0.5,952.0,0.0,3
1316069,10529094043,0.0,0.0,-174.0,0,0.498,952.0,0.0,3
1316070,10529102046,0.0,0.0,-173.0,0,0.497,952.0,0.0,3
1316071,10529110043,0.0,0.0,-172.0,0,0.495,952.0,0.0,3
1316072,10529118043,0.0,0.0,-171.0,0,0.494,952.0,0.0,3
1316073,10529126043,0.0,0.0,-170.0,0,0.492,952.0,0.0,3
1316074,10529134043,0.0,0.0,-168.0,0,0.496,952.0,0.0,3
1316075,10529142043,0.0,0.0,-167.0,0,0.489,952.0,0.0,3
1316076,10529150043,0.0,0.0,-166.0,0,0.487,952.0,0.0,3
1316077,10529158043,0.0,0.0,-165.0,0,0.486,952.0,0.0,3
1316078,10529166043,0.0,0.0,-164.0,0,0.484,952.0,0.0,3
1316079,10529174043,0.0,0.0,-163.0,0,0.483,952.0,0.0,3
1316080,10529182045,0.0,0.0,-162.0,0,0.481,952.0,0.0,3
1316081,10529190043,0.0,0.0,-161.0,0,0.48,952.0,0.0,3
1316082,10529198045,0.0,0.0,-160.0,0,0.479,952.0,0.0,3
1316083,10529206043,0.0,0.0,-159.0,0,0.477,952.0,0.0,3
1316084,10529214043,0.0,0.0,-158.0,0,0.476,952.0,0.0,3
1316085,10529222043,0.0,0.0,-157.0,0,0.475,952.0,0.0,3
1316086,10529230046,0.0,0.0,-156.0,0,0.0,0.0,0.0,2
1316087,10529238043,3.0,1.0,-154.0,0,0.0,0.0,0.0,0
1316088,10529246043,9.0,3.0,-153.0,0,0.0,0.0,0.0,0
1316089,10529254043,18.0,6.0,-150.0,0,0.0,0.0,0.0,0
1316090,10529262045,23.0,10.0,-147.0,0,0.0,0.0,0.0,0
1316091,10529270043,28.0,15.0,-143.0,0,0.0,0.0,0.0,0
1316092,10529278046,31.0,19.0,-139.0,0,0.0,0.0,0.0,0
1316093,10529286043,37.0,23.0,-134.0,0,0.0,0.0,0.0,0
1316094,10529294046,43.0,28.0,-130.0,0,0.0,0.0,0.0,0
1316095,10529302043,48.0,33.0,-125.0,0,0.0,0.0,0.0,0
1316096,10529310047,51.0,37.0,-120.0,0,0.0,0.0,0.0,0
1316097,10529318044,59.0,42.0,-114.0,0,0.0,0.0,0.0,0
1316098,10529326043,60.0,47.0,-109.0,0,0.0,0.0,0.0,0
1316099,10529334046,66.0,51.0,-104.0,0,0.0,0.0,0.0,0
1316100,10529342043,68.0,55.0,-99.0,0,0.0,0.0,0.0,0
1316101,10529350047,75.0,60.0,-94.0,0,0.0,0.0,0.0,0
1316102,10529358044,79.0,65.0,-89.0,0,0.0,0.0,0.0,0
1316103,10529366043,83.0,69.0,-84.0,0,0.0,0.0,0.0,0
1316104,10529374047,87.0,73.0,-79.0,0,0.0,0.0,0.0,0
1316105,10529382043,90.0,77.0,-74.0,0,0.0,0.0,0.0,0
1316106,10529390046,93.0,81.0,-69.0,0,0.0,0.0,0.0,0
1316107,10529398043,95.0,85.0,-65.0,0,0.0,0.0,0.0,0
1316108,10529406045,100.0,88.0,-61.0,0,0.0,0.0,0.0,0
1316109,10529414043,103.0,92.0,-57.0,0,0.0,0.0,0.0,0
1316110,10529422046,105.0,95.0,-53.0,0,0.0,0.0,0.0,0
1316111,10529430043,105.0,97.0,-49.0,0,0.0,0.0,0.0,0
1316112,10529438046,105.0,99.0,-46.0,0,0.0,0.0,0.0,0
1316113,10529446043,106.0,101.0,-43.0,0,0.0,0.0,0.0,0
1316114,10529454044,107.0,102.0,-41.0,0,0.0,0.0,0.0,0
1316115,10529462045,109.0,104.0,-38.0,0,0.0,0.0,0.0,0
1316116,10529470047,112.0,106.0,-36.0,0,0.0,0.0,0.0,0
1316117,10529478043,117.0,109.0,-34.0,0,0.0,0.0,0.0,0
1316118,10529486044,127.0,113.0,-31.0,0,0.0,0.0,0.0,1
1316119,10529494043,143.0,120.0,-26.0,0,0.0,0.0,0.0,1
1316120,10529502043,164.0,131.0,-20.0,0,0.0,0.0,0.0,1
1316121,10529510043,193.0,146.0,-12.0,0,0.0,0.0,0.0,1
1316122,10529518043,228.0,166.0,0.0,0,0.0,0.0,0.0,1
1316123,10529526043,275.0,192.0,16.0,0,0.0,0.0,0.0,1
1316124,10529534043,324.0,224.0,36.0,0,0.0,0.0,0.0,1
1316125,10529542043,372.0,260.0,61.0,0,0.0,0.0,0.0,1
1316126,10529550043,426.0,300.0,90.0,0,0.0,0.0,0.0,1
1316127,10529558043,477.0,343.0,122.0,0,0.0,0.0,0.0,1
1316128,10529566043,530.0,388.0,158.0,0,0.0,0.0,0.0,1
1316129,10529574043,578.0,434.0,196.0,0,0.0,0.0,0.0,1
1316130,10529582043,619.0,479.0,235.0,0,0.0,0.0,0.0,1
1316131,10529590043,661.0,523.0,275.0,0,0.0,0.0,0.0,1
1316132,10529598043,692.0,564.0,314.0,0,0.0,0.0,0.0,1
1316133,10529606043,716.0,601.0,352.0,0,0.0,0.0,0.0,1
1316134,10529614043,737.0,634.0,388.0,0,0.0,0.0,0.0,1
1316135,10529622043,743.0,660.0,420.0,0,0.0,0.0,0.0,1
1316136,10529630043,746.0,681.0,447.0,0,0.0,0.0,0.0,1
1316137,10529638043,739.0,695.0,470.0,0,0.0,0.0,0.0,1
1316138,10529646043,726.0,703.0,488.0,0,0.0,0.0,0.0,1
1316139,10529654043,707.0,704.0,499.0,0,0.0,0.0,0.0,1
1316140,10529662043,683.0,699.0,505.0,0,0.0,0.0,0.0,1
1316141,10529670043,656.0,688.0,506.0,0,0.0,0.0,0.0,1
1316142,10529678043,624.0,673.0,501.0,0,0.0,0.0,0.0,1
1316143,10529686043,591.0,653.0,490.0,0,0.0,0.0,0.0,1
1316144,10529694043,557.0,630.0,476.0,0,0.0,0.0,0.0,1
1316145,10529702043,519.0,603.0,457.0,0,0.0,0.0,0.0,1
1316146,10529710043,476.0,572.0,434.0,0,0.0,0.0,0.0,1
1316147,10529718043,432.0,538.0,407.0,0,0.0,0.0,0.0,1
1316148,10529726043,390.0,502.0,377.0,0,0.0,0.0,0.0,1
1316149,10529734043,345.0,464.0,344.0,0,0.0,0.0,0.0,1
1316150,10529742043,301.0,425.0,309.0,0,0.513,0.0,0.0,1
1316151,10529750043,260.0,385.0,272.0,0,0.496,0.0,0.0,1
1316152,10529758045,219.0,345.0,234.0,0,0.532,0.0,0.0,1
1316153,10529766043,187.0,306.0,196.0,0,0.567,0.0,0.0,1
1316154,10529774043,154.0,269.0,158.0,0,0.605,0.0,0.0,1
1316155,10529782045,121.0,233.0,120.0,0,0.642,0.0,0.0,1
1316156,10529790043,96.0,200.0,84.0,0,0.668,0.0,0.0,1
1316157,10529798043,75.0,170.0,49.0,0,0.693,0.0,0.0,1
1316158,10529806047,53.0,141.0,17.0,0,0.704,0.0,0.0,1
1316159,10529814043,40.0,117.0,-14.0,0,0.719,0.0,0.0,1
1316160,10529822047,28.0,95.0,-41.0,0,0.716,0.0,0.0,1
1316161,10529830043,16.0,76.0,-66.0,0,0.718,0.0,0.0,1
1316162,10529838044,7.0,59.0,-88.0,0,0.712,0.0,0.0,1
1316163,10529846043,0.0,45.0,-108.0,0,0.708,0.0,0.0,3
1316164,10529854044,0.0,34.0,-125.0,0,0.698,0.0,0.0,3
1316165,10529862043,0.0,26.0,-139.0,0,0.685,0.0,0.0,3
1316166,10529870043,0.0,20.0,-150.0,0,0.671,0.0,0.0,3
1316167,10529878043,0.0,15.0,-160.0,0,0.664,0.0,0.0,3
1316168,10529886043,0.0,11.0,-167.0,0,0.648,0.0,0.0,3
1316169,10529894043,0.0,8.0,-172.0,0,0.635,0.0,0.0,3
1316170,10529902043,0.0,6.0,-177.0,0,0.631,0.0,0.0,3
1316171,10529910043,0.0,5.0,-180.0,0,0.618,0.0,0.0,3
1316172,10529918043,0.0,4.0,-182.0,0,0.608,0.0,0.0,3
1316173,10529926043,0.0,3.0,-184.0,0,0.603,0.0,0.0,3
