seq,t_us,rr_ms,hr_bpm,score,flags
8510374,68083549918,751.0,79.8,0.867,73
8510470,68084317916,767.0,78.9,0.861,73
8510565,68085077916,760.0,78.9,0.884,73
8510658,68085821917,744.0,79.8,0.861,73
8510760,68086637917,816.0,79.8,0.846,73
8510858,68087421918,784.0,78.9,0.852,73
8510950,68088157916,735.0,79.8,0.91,73
8511037,68088853920,696.0,79.8,0.796,73
8511122,68089533916,679.0,79.8,0.906,169
8511213,68090261920,728.0,79.8,0.77,169
8511300,68090957917,695.0,79.8,0.804,169
8511384,68091629918,672.0,79.8,0.749,169
8511518,68092701921,1072.0,79.8,0.473,185
8511634,68093629920,927.0,79.8,0.819,169
8511712,68094253920,624.0,78.9,0.8,73
8511799,68094949916,695.0,78.9,0.883,73
8511882,68095613920,664.0,80.6,0.839,73
8511962,68096253920,640.0,81.5,0.801,73
8512065,68097077921,824.0,81.5,0.551,169
8512197,68098133917,1055.0,81.5,0.753,169
8512279,68098789918,656.0,81.5,0.781,169
8512362,68099453920,664.0,81.5,0.791,169
8512442,68100093917,639.0,81.5,0.819,169
8512526,68100765920,672.0,81.5,0.856,169
8512613,68101461921,696.0,81.5,0.905,73
8512693,68102101920,639.0,86.2,0.827,73
8512775,68102757918,655.0,86.2,0.854,73
8512859,68103429917,671.0,89.3,0.854,73
8512947,68104133918,704.0,89.3,0.881,73
8513043,68104901920,768.0,89.3,0.883,73
8513140,68105677920,776.0,89.3,0.842,73
8513239,68106469921,792.0,85.2,0.804,73
8513332,68107213916,743.0,80.6,0.814,73
8513430,68107997920,784.0,80.6,0.817,73
8513526,68108765916,767.0,78.1,0.806,73
8513616,68109485920,720.0,78.1,0.815,73
8513708,68110221920,736.0,78.1,0.814,73
8513796,68110925921,704.0,78.1,0.838,73
8513886,68111645920,719.0,80.6,0.867,73
8513980,68112397918,751.0,80.6,0.893,73
8514068,68113101917,703.0,81.5,0.895,73
8514162,68113853920,752.0,81.5,0.872,73
8514256,68114605920,752.0,81.5,0.863,73
8514348,68115341921,736.0,81.5,0.869,73
8514436,68116045917,703.0,81.5,0.863,73
8514532,68116813920,768.0,81.5,0.843,73
8514623,68117541916,727.0,81.5,0.806,73
8514711,68118245917,704.0,81.5,0.813,73
8514802,68118973921,728.0,82.4,0.881,73
8514897,68119733920,759.0,81.5,0.899,73
8514988,68120461920,728.0,82.4,0.874,73
8515084,68121229921,768.0,82.4,0.864,73
8515180,68121997920,767.0,82.4,0.857,73
8515274,68122749918,751.0,79.8,0.844,73
8515366,68123485920,736.0,81.5,0.893,73
8515466,68124285920,800.0,79.8,0.854,73
8515565,68125077923,792.0,78.9,0.839,73
8515659,68125829921,751.0,78.9,0.782,73
8515754,68126589918,759.0,78.9,0.863,73
8515852,68127373920,784.0,78.1,0.816,73
8515946,68128125918,751.0,78.9,0.868,73
8516044,68128909916,783.0,78.9,0.825,73
8516144,68129709917,800.0,76.5,0.858,73
8516245,68130517920,808.0,76.5,0.829,73
8516345,68131317918,799.0,76.5,0.858,73
8516453,68132181920,864.0,76.5,0.832,73
8516562,68133053921,872.0,75.0,0.813,73
8516665,68133877916,823.0,75.0,0.802,73
8516772,68134733920,856.0,74.3,0.805,73
8516874,68135549920,816.0,73.5,0.796,73
8516968,68136301920,752.0,73.5,0.796,73
8517059,68137029917,727.0,73.5,0.838,73
8517146,68137725917,696.0,73.5,0.895,73
8517229,68138389920,664.0,73.5,0.859,73
8517348,68139341921,952.0,73.5,0.516,169
8517481,68140405921,1064.0,73.5,0.777,169
8517569,68141109920,703.0,73.5,0.842,169
8517659,68141829918,719.0,73.5,0.883,169
8517755,68142597919,768.0,73.5,0.896,169
8517855,68143397920,800.0,73.5,0.862,73
8517948,68144141919,743.0,79.8,0.863,73
8518041,68144885919,744.0,80.6,0.842,73
8518141,68145685920,800.0,80.6,0.882,73
8518241,68146485920,800.0,80.6,0.851,73
8518337,68147253920,768.0,80.6,0.844,73
8518433,68148021918,767.0,78.1,0.881,73
8518530,68148797920,776.0,78.1,0.881,73
8518627,68149573921,776.0,77.3,0.834,73
8518725,68150357916,783.0,77.3,0.873,73
8518818,68151101917,744.0,77.3,0.846,73
8518902,68151773918,672.0,77.3,0.819,73
8518988,68152461920,688.0,78.1,0.84,73
8519076,68153165920,704.0,78.1,0.855,73
8519167,68153893920,728.0,80.6,0.831,73
8519294,68154909917,1015.0,80.6,0.436,185
8519422,68155933918,1024.0,80.6,0.802,169
8519514,68156669920,736.0,80.6,0.809,169
8519609,68157429920,760.0,80.6,0.785,169
8519643,68157701920,272.0,80.6,0.528,173
8519741,68158485920,784.0,80.6,0.503,169
8519830,68159197920,712.0,80.6,0.494,185
8519925,68159957920,760.0,80.6,0.512,169
8520003,68160581921,624.0,80.6,0.572,169
8520113,68161461920,879.0,80.6,0.451,185
8520205,68162197920,736.0,80.6,0.486,185
8520291,68162885921,688.0,80.6,0.542,169
8520405,68163797917,911.0,80.6,0.502,169
8520521,68164725920,928.0,80.6,0.8,169
8520602,68165373920,648.0,80.6,0.845,169
8520688,68166061921,688.0,80.6,0.816,169
8520763,68166661920,599.0,80.6,0.811,169
8520844,68167309920,648.0,80.6,0.863,169
8520931,68168005916,695.0,80.6,0.889,169
8521056,68169005917,1000.0,80.6,0.733,169
8521153,68169781916,775.0,80.6,0.43,185
8521251,68170565920,784.0,80.6,0.435,185
8521365,68171477918,911.0,80.6,0.644,185
8521405,68171797920,320.0,80.6,0.577,169
8521490,68172477921,680.0,80.6,0.526,169
8521625,68173557918,1079.0,80.6,0.819,169
8521707,68174213921,656.0,80.6,0.831,169
8521790,68174877917,663.0,80.6,0.738,169
8521876,68175565918,688.0,80.6,0.82,169
8521958,68176221920,656.0,80.6,0.832,169
8522038,68176861918,639.0,80.6,0.824,169
8522118,68177501917,639.0,80.6,0.81,169
8522227,68178373920,872.0,80.6,0.632,169
8522371,68179525916,1151.0,80.6,0.796,169
8522647,68181733921,0.0,0.0,0.76,75
8522741,68182485920,751.0,79.8,0.834,73
8522835,68183237920,752.0,79.8,0.784,73
8522925,68183957920,720.0,79.8,0.725,73
8523013,68184661920,704.0,81.5,0.866,73
8523104,68185389920,728.0,82.4,0.893,73
8523195,68186117920,728.0,82.4,0.829,73
8523286,68186845920,728.0,82.4,0.873,73
8523376,68187565920,720.0,82.4,0.857,73
8523470,68188317920,752.0,82.4,0.88,73
8523565,68189077917,759.0,82.4,0.866,73
8523659,68189829917,752.0,82.4,0.807,73
8523751,68190565920,736.0,82.4,0.867,73
8523845,68191317920,752.0,81.5,0.863,73
8523939,68192069917,751.0,79.8,0.906,73
8524031,68192805920,736.0,79.8,0.857,73
8524124,68193549920,744.0,79.8,0.787,73
8524210,68194237920,688.0,79.8,0.789,73
8524296,68194925917,687.0,80.6,0.78,73
8524380,68195597917,672.0,81.5,0.858,73
8524496,68196525921,928.0,81.5,0.491,185
8524595,68197317920,791.0,81.5,0.529,169
8524657,68197813917,495.0,81.5,0.452,185
8524800,68198957920,1144.0,81.5,0.754,169
8524889,68199669920,712.0,81.5,0.705,169
8524974,68200349921,680.0,81.5,0.795,169
8525062,68201053920,703.0,81.5,0.769,73
8525150,68201757920,704.0,85.2,0.893,73
8525235,68202437920,680.0,87.2,0.879,73
8525329,68203189917,751.0,87.2,0.883,73
8525423,68203941917,752.0,87.2,0.856,73
8525521,68204725917,784.0,87.2,0.811,73
8525622,68205533921,808.0,85.2,0.827,73
8525719,68206309921,776.0,85.2,0.795,169
8525814,68207069920,759.0,85.2,0.8,169
8525849,68207349916,279.0,85.2,0.521,173
8525992,68208493921,1144.0,85.2,0.811,169
8526076,68209165921,672.0,85.2,0.791,169
8526159,68209829917,663.0,85.2,0.828,169
8526238,68210461920,632.0,85.2,0.842,73
8526314,68211069921,608.0,85.2,0.83,73
8526391,68211685920,615.0,85.2,0.831,73
8526471,68212325917,639.0,85.2,0.818,73
8526586,68213245916,919.0,85.2,0.515,169
8526656,68213805916,560.0,85.2,0.535,169
8526782,68214813917,1008.0,85.2,0.814,169
8526861,68215445917,632.0,85.2,0.822,169
8526938,68216061921,616.0,85.2,0.832,169
8527015,68216677920,615.0,85.2,0.859,169
8527088,68217261916,583.0,85.1,0.817,73
8527163,68217861920,600.0,85.2,0.855,73
8527236,68218445920,584.0,93.8,0.825,73
8527346,68219325920,880.0,93.8,0.477,185
8527453,68220181917,855.0,93.8,0.711,169
8527492,68220493920,312.0,93.8,0.531,169
8527604,68221389917,895.0,93.8,0.76,169
8527644,68221709920,320.0,93.8,0.502,169
8527761,68222645920,936.0,93.8,0.81,169
8527846,68223325919,679.0,93.8,0.798,169
8527879,68223589916,263.0,93.8,0.48,189
8527971,68224325920,736.0,93.8,0.484,185
8528025,68224757918,431.0,93.8,0.845,169
8528120,68225517920,760.0,93.8,0.9,73
8528218,68226301920,784.0,93.8,0.86,73
8528315,68227077920,776.0,93.8,0.81,73
8528351,68227365920,288.0,93.8,0.447,189
8528446,68228125916,759.0,93.8,0.506,169
8528541,68228885916,760.0,93.8,0.493,185
8528596,68229325920,440.0,93.8,0.832,169
8528687,68230053920,728.0,93.8,0.842,169
8528773,68230741921,688.0,93.8,0.858,169
8528864,68231469920,727.0,93.8,0.892,73
8528957,68232213920,744.0,93.3,0.857,73
8529055,68232997920,784.0,85.1,0.81,73
8529148,68233741920,744.0,80.6,0.808,73
8529237,68234453920,712.0,80.6,0.844,73
8529329,68235189920,736.0,80.6,0.857,73
8529416,68235885920,696.0,80.6,0.84,73
8529501,68236565917,679.0,81.5,0.869,73
8529590,68237277920,712.0,84.3,0.898,73
8529680,68237997917,719.0,83.3,0.887,73
8529770,68238717920,720.0,83.3,0.852,73
8529856,68239405920,688.0,84.3,0.839,73
8529935,68240037920,632.0,84.3,0.844,73
8530014,68240669921,632.0,86.2,0.826,73
8530128,68241581918,911.0,86.2,0.496,185
8530211,68242245920,664.0,86.2,0.515,169
8530298,68242941918,695.0,86.2,0.524,169
8530389,68243669917,727.0,86.2,0.64,169
8530473,68244341920,672.0,86.2,0.594,169
8530553,68244981917,639.0,86.2,0.519,169
8530631,68245605920,624.0,86.2,0.546,169
8530766,68246685917,1079.0,86.2,0.774,185
8530800,68246957921,272.0,86.2,0.496,189
8530885,68247637920,679.0,86.2,0.487,185
8530975,68248357920,720.0,86.2,0.489,185
8531062,68249053920,696.0,86.2,0.506,169
8531138,68249661918,607.0,86.2,0.502,169
8531228,68250381916,719.0,86.2,0.506,169
8531312,68251053920,672.0,86.2,0.53,169
8531403,68251781920,728.0,86.2,0.513,169
8531509,68252629921,848.0,86.2,0.461,185
8531573,68253141920,511.0,86.2,0.503,169
8531653,68253781920,640.0,86.2,0.52,169
8531735,68254437920,656.0,86.2,0.518,169
8531871,68255525918,1087.0,86.2,0.715,169
8531958,68256221917,695.0,86.2,0.815,169
8532013,68256661916,439.0,86.2,0.504,169
8532094,68257309920,648.0,86.2,0.518,169
8532209,68258229917,919.0,86.2,0.78,169
8532291,68258885917,656.0,86.2,0.807,169
8532374,68259549920,664.0,86.2,0.82,169
8532456,68260205920,656.0,86.2,0.82,169
8532537,68260853920,648.0,86.2,0.767,169
8532624,68261549921,696.0,86.2,0.77,169
8532705,68262197918,647.0,86.2,0.867,169
8532788,68262861920,664.0,86.2,0.908,169
8532865,68263477920,616.0,86.2,0.773,169
8532942,68264093917,615.0,86.2,0.847,169
8533023,68264741917,648.0,86.2,0.798,169
8533103,68265381916,639.0,86.2,0.804,169
8533184,68266029917,648.0,86.2,0.861,169
8533266,68266685918,656.0,86.2,0.797,169
8533353,68267381920,696.0,86.2,0.865,169
8533443,68268101916,719.0,86.2,0.846,169
8533537,68268853918,752.0,86.2,0.886,169
8533633,68269621918,768.0,86.2,0.854,169
8533725,68270357916,735.0,86.2,0.874,169
8533817,68271093917,736.0,86.2,0.85,169
8533914,68271869921,776.0,86.2,0.829,169
8534005,68272597921,728.0,86.2,0.786,169
8534093,68273301917,703.0,86.2,0.802,169
8534126,68273565920,264.0,86.2,0.504,173
8534269,68274709917,1143.0,86.2,0.735,169
8534353,68275381920,672.0,86.2,0.795,169
8534437,68276053917,671.0,86.2,0.804,169
8534500,68276557919,504.0,86.2,0.512,169
8534605,68277397918,839.0,86.2,0.779,169
8534684,68278029920,632.0,86.2,0.852,169
8534765,68278677920,648.0,86.2,0.854,169
8534845,68279317917,639.0,86.2,0.833,169
8534929,68279989920,672.0,86.2,0.82,169
8535017,68280693916,703.0,86.2,0.791,169
8535103,68281381916,688.0,86.2,0.836,169
8535188,68282061920,680.0,86.2,0.87,169
8535275,68282757920,696.0,86.2,0.849,169
8535362,68283453917,695.0,86.2,0.849,169
8535439,68284069921,616.0,86.2,0.884,169
8535525,68284757919,687.0,86.2,0.661,169
8535603,68285381916,623.0,86.2,0.909,169
8535688,68286061920,680.0,86.2,0.817,169
8535769,68286709919,647.0,86.2,0.83,169
8535852,68287373920,664.0,86.2,0.788,169
8535935,68288037921,664.0,86.2,0.883,169
8536019,68288709920,671.0,86.2,0.864,169
8536102,68289373920,664.0,86.2,0.843,169
8536180,68289997920,624.0,86.2,0.836,169
8536264,68290669920,672.0,86.2,0.873,169
8536346,68291325920,656.0,86.2,0.823,169
8536473,68292341920,1016.0,86.2,0.46,185
8536540,68292877921,536.0,86.2,0.51,169
8536601,68293365920,487.0,86.2,0.796,169
8536686,68294045917,679.0,86.2,0.587,185
8536812,68295053920,1008.0,86.2,0.482,185
8536908,68295821918,767.0,86.2,0.743,169
8536989,68296469917,647.0,86.2,0.554,169
8537086,68297245920,776.0,86.2,0.727,169
8537161,68297845920,600.0,86.2,0.745,169
8537236,68298445920,600.0,86.2,0.826,169
8537316,68299085917,639.0,86.2,0.879,169
8537431,68300005920,920.0,86.2,0.746,169
8537489,68300469921,464.0,86.2,0.709,169
8537571,68301125920,655.0,86.2,0.798,169
8537656,68301805920,680.0,86.2,0.858,169
8537745,68302517917,711.0,86.2,0.861,169
8537839,68303269921,752.0,86.2,0.833,169
8537929,68303989920,719.0,86.2,0.816,169
8538019,68304709919,719.0,86.2,0.82,169
8538100,68305357918,647.0,86.2,0.755,169
8538182,68306013920,656.0,86.2,0.849,169
8538270,68306717920,704.0,86.2,0.848,169
8538361,68307445920,728.0,86.2,0.75,169
8538447,68308133920,688.0,86.2,0.842,169
8538529,68308789918,655.0,86.2,0.843,169
8538616,68309485920,696.0,86.2,0.833,169
8538705,68310197920,712.0,86.2,0.826,169
8538798,68310941920,744.0,86.2,0.778,169
8538882,68311613920,672.0,86.2,0.776,169
8538970,68312317920,704.0,86.2,0.804,169
8539059,68313029918,711.0,86.2,0.785,169
8539095,68313317917,287.0,86.2,0.502,173
8539196,68314125917,808.0,86.2,0.488,185
8539284,68314829918,704.0,86.2,0.502,169
8539372,68315533920,704.0,86.2,0.476,185
8539427,68315973918,439.0,86.2,0.826,169
8539515,68316677921,704.0,86.2,0.802,169
8539615,68317477917,799.0,86.2,0.857,169
8539690,68318077917,600.0,86.2,0.791,169
8539771,68318725917,648.0,86.2,0.837,169
8539855,68319397916,671.0,86.2,0.813,169
8539977,68320373917,976.0,86.2,0.434,185
8540028,68320781920,408.0,86.2,0.829,169
8540122,68321533917,751.0,86.2,0.883,169
8540213,68322261920,728.0,86.2,0.871,169
8540303,68322981920,720.0,86.2,0.806,169
8540388,68323661920,680.0,86.2,0.872,169
8540478,68324381920,720.0,86.2,0.858,169
8540572,68325133920,752.0,86.2,0.864,169
8540663,68325861921,728.0,86.2,0.816,169
8540756,68326605921,744.0,86.2,0.766,169
8540834,68327229920,623.0,86.2,0.629,169
8540915,68327877920,648.0,86.2,0.74,169
8540995,68328517917,639.0,86.2,0.793,169
8541073,68329141916,623.0,86.2,0.894,169
8541154,68329789921,648.0,86.2,0.871,169
8541238,68330461921,672.0,86.2,0.882,169
8541322,68331133920,671.0,86.2,0.877,169
8541404,68331789920,656.0,86.2,0.866,169
8541487,68332453920,664.0,86.2,0.876,169
8541570,68333117920,664.0,86.2,0.848,169
8541655,68333797921,680.0,86.2,0.846,169
8541737,68334453921,656.0,86.2,0.776,169
8541825,68335157920,703.0,86.2,0.832,169
8541910,68335837917,679.0,86.2,0.832,169
8541995,68336517917,680.0,86.2,0.845,169
8542117,68337493920,976.0,86.2,0.47,185
8542243,68338501920,1008.0,86.2,0.78,185
8542277,68338773920,272.0,86.2,0.529,173
8542391,68339685921,912.0,86.2,0.42,185
8542478,68340381920,695.0,86.2,0.383,185
8542544,68340909920,528.0,86.2,0.468,185
8542635,68341637921,728.0,86.2,0.436,185
8542681,68342005916,367.0,86.2,0.82,169
8542770,68342717918,712.0,86.2,0.846,169
8542862,68343453920,736.0,86.2,0.861,169
8542955,68344197920,744.0,86.2,0.871,169
8543047,68344933920,736.0,86.2,0.907,169
8543138,68345661920,728.0,86.2,0.821,169
8543225,68346357920,696.0,86.2,0.856,169
8543313,68347061920,704.0,86.2,0.819,169
8543395,68347717920,656.0,86.2,0.804,169
8543474,68348349917,631.0,86.2,0.853,169
8543556,68349005917,656.0,86.2,0.826,169
8543636,68349645917,640.0,86.2,0.89,169
8543722,68350333918,688.0,86.2,0.87,169
8543816,68351085920,752.0,86.2,0.895,169
8543909,68351829921,744.0,86.2,0.837,169
8544003,68352581917,751.0,86.2,0.844,169
8544100,68353357921,776.0,86.2,0.818,169
8544196,68354125920,767.0,86.2,0.796,169
8544255,68354597920,472.0,86.2,0.477,185
8544324,68355149916,551.0,86.2,0.516,169
8544423,68355941921,792.0,86.2,0.463,185
8544485,68356437917,495.0,86.2,0.832,169
8544589,68357269920,832.0,86.2,0.864,169
8544691,68358085920,816.0,86.2,0.823,169
8544792,68358893920,808.0,86.2,0.803,169
8544828,68359181920,288.0,86.2,0.495,189
8544921,68359925920,744.0,86.2,0.518,169
8544987,68360453920,528.0,86.2,0.546,185
8545106,68361405921,952.0,86.2,0.529,169
8545194,68362109920,703.0,86.2,0.496,185
8545274,68362749920,640.0,86.2,0.508,169
8545373,68363541920,792.0,86.2,0.476,185
8545458,68364221916,679.0,86.2,0.452,185
8545514,68364669918,448.0,86.2,0.886,169
8545625,68365557920,888.0,86.2,0.857,169
8545728,68366381917,823.0,86.2,0.801,169
8545825,68367157917,776.0,86.2,0.784,169
8545924,68367949921,792.0,86.2,0.75,185
8545928,68367981917,31.0,86.2,0.53,189
8546022,68368733920,752.0,86.2,0.821,169
8546116,68369485917,751.0,86.2,0.837,169
8546216,68370285916,799.0,86.2,0.882,169
8546317,68371093921,808.0,86.2,0.837,169
8546420,68371917916,823.0,86.2,0.787,169
8546518,68372701916,784.0,86.2,0.767,185
8546549,68372949921,248.0,86.2,0.552,173
8546616,68373485920,535.0,86.2,0.595,185
8546711,68374245920,760.0,86.2,0.84,169
8546802,68374973920,728.0,86.2,0.888,169
8546901,68375765916,791.0,86.2,0.87,169
8547002,68376573916,808.0,86.2,0.823,169
8547097,68377333920,760.0,86.2,0.788,169
8547186,68378045918,711.0,86.2,0.789,169
8547279,68378789921,744.0,86.2,0.796,169
8547334,68379229921,440.0,86.2,0.484,185
8547426,68379965918,735.0,86.2,0.482,185
8547469,68380309921,344.0,86.2,0.559,185
8547563,68381061920,751.0,86.2,0.837,169
8547656,68381805916,743.0,86.2,0.85,169
8547754,68382589920,784.0,86.2,0.887,169
8547848,68383341917,751.0,86.2,0.835,169
8547938,68384061920,720.0,86.2,0.848,169
8548024,68384749920,688.0,86.2,0.84,169
8548105,68385397920,648.0,86.2,0.876,169
8548189,68386069921,672.0,86.2,0.854,169
8548277,68386773920,703.0,86.2,0.849,169
8548369,68387509920,736.0,86.2,0.827,169
8548455,68388197921,688.0,86.2,0.789,169
8548551,68388965920,767.0,86.2,0.842,169
8548648,68389741917,775.0,86.2,0.818,169
8548701,68390165917,424.0,86.2,0.5,185
8548776,68390765918,600.0,86.2,0.514,169
8548879,68391589920,824.0,86.2,0.49,185
8548932,68392013920,424.0,86.2,0.807,169
8549036,68392845920,832.0,86.2,0.846,169
8549126,68393565918,719.0,86.2,0.836,169
8549220,68394317920,752.0,86.2,0.866,169
8549315,68395077921,760.0,86.2,0.758,169
8549409,68395829920,751.0,86.2,0.803,169
8549459,68396229920,400.0,86.2,0.544,169
8549591,68397285920,1056.0,86.2,0.805,169
8549687,68398053918,767.0,86.2,0.764,185
8549720,68398317917,263.0,86.2,0.511,173
8549786,68398845918,528.0,86.2,0.818,169
8549887,68399653921,808.0,86.2,0.851,169
8549988,68400461917,807.0,86.2,0.862,169
8550084,68401229917,768.0,86.2,0.825,169
8550136,68401645917,416.0,86.2,0.505,169
8550218,68402301920,656.0,86.2,0.463,185
8550377,68403573920,1272.0,86.2,0.336,185
8550472,68404333921,760.0,86.2,0.828,169
8550556,68405005917,671.0,86.2,0.801,169
8550644,68405709921,704.0,86.2,0.842,169
8550736,68406445921,736.0,86.2,0.866,169
8550831,68407205917,759.0,86.2,0.885,169
8550931,68408005920,800.0,86.2,0.835,169
8551025,68408757916,751.0,86.2,0.847,169
8551122,68409533916,776.0,86.2,0.789,169
8551159,68409829920,296.0,86.2,0.468,189
8551318,68411101917,1271.0,86.2,0.312,185
8551411,68411845919,744.0,86.2,0.804,169
8551507,68412613920,768.0,86.2,0.853,169
8551606,68413405921,792.0,86.2,0.883,169
8551713,68414261920,855.0,86.2,0.835,169
8551776,68414765917,503.0,86.2,0.464,185
8551859,68415429920,664.0,86.2,0.53,169
8551940,68416077917,647.0,86.2,0.883,169
8552039,68416869920,792.0,86.2,0.838,169
8552138,68417661919,791.0,86.2,0.867,169
8552232,68418413920,752.0,86.2,0.807,169
8552327,68419173918,759.0,86.2,0.785,169
8552365,68419477920,304.0,86.2,0.48,185
8552456,68420205917,727.0,86.2,0.524,169
8552599,68421349920,1144.0,86.2,0.78,185
8552688,68422061920,712.0,86.2,0.325,185
8552786,68422845921,784.0,86.2,0.821,169
8552878,68423581917,735.0,86.2,0.84,169
8552968,68424301920,720.0,86.2,0.872,169
8553067,68425093920,792.0,86.2,0.879,169
8553161,68425845921,752.0,86.2,0.868,169
8553247,68426533920,687.0,86.2,0.844,169
8553336,68427245917,711.0,86.2,0.864,169
8553420,68427917920,672.0,86.2,0.844,169
8553502,68428573920,656.0,86.2,0.861,169
8553582,68429213921,640.0,86.2,0.843,169
8553668,68429901916,687.0,86.2,0.859,169
8553752,68430573918,672.0,86.2,0.854,169
8553837,68431253921,680.0,86.2,0.901,169
8553927,68431973920,719.0,86.2,0.809,169
8554011,68432645918,671.0,86.2,0.854,169
8554100,68433357920,712.0,86.2,0.836,169
8554191,68434085920,728.0,86.2,0.836,169
8554287,68434853920,768.0,86.2,0.803,169
8554386,68435645917,791.0,86.2,0.759,169
8554449,68436149920,504.0,86.2,0.461,185
8554516,68436685921,536.0,86.2,0.43,185
8554593,68437301917,615.0,86.2,0.53,169
8554659,68437829920,528.0,86.2,0.541,185
8554783,68438821920,992.0,86.2,0.532,169
8554840,68439277916,455.0,86.2,0.873,169
8554931,68440005920,728.0,86.2,0.826,169
8555022,68440733916,727.0,86.2,0.851,169
8555115,68441477921,744.0,86.2,0.85,169
8555209,68442229920,751.0,86.2,0.862,169
8555305,68442997920,768.0,86.2,0.834,169
8555400,68443757920,760.0,86.2,0.736,169
8555485,68444437920,680.0,86.2,0.805,169
8555570,68445117918,679.0,86.2,0.826,169
8555657,68445813920,696.0,86.2,0.842,169
8555746,68446525921,712.0,86.2,0.804,169
8555800,68446957920,431.0,86.2,0.508,169
8555930,68447997920,1040.0,86.2,0.759,169
8556017,68448693916,695.0,86.2,0.74,169
8556056,68449005920,312.0,86.2,0.502,169
8556137,68449653920,648.0,86.2,0.47,185
8556235,68450437920,784.0,86.2,0.597,169
8556295,68450917917,479.0,86.2,0.83,169
8556393,68451701920,784.0,86.2,0.879,169
8556480,68452397917,695.0,86.2,0.816,169
8556570,68453117917,720.0,86.2,0.89,169
8556657,68453813918,696.0,86.2,0.891,169
8556748,68454541920,728.0,86.2,0.889,169
8556840,68455277921,736.0,86.2,0.862,169
8556926,68455965920,687.0,86.2,0.814,169
8557015,68456677917,711.0,86.2,0.815,169
8557105,68457397921,720.0,86.2,0.822,169
8557198,68458141916,743.0,86.2,0.78,169
8557288,68458861918,720.0,86.2,0.794,169
8557379,68459589919,728.0,86.2,0.786,169
8557467,68460293920,704.0,86.2,0.764,169
8557501,68460565918,271.0,86.2,0.534,173
8557613,68461461920,896.0,86.2,0.421,185
8557738,68462461918,999.0,86.2,0.293,185
8557832,68463213919,752.0,86.2,0.833,169
8557924,68463949921,736.0,86.2,0.809,169
8558012,68464653920,703.0,86.2,0.823,169
8558102,68465373916,719.0,86.2,0.863,169
8558189,68466069920,696.0,86.2,0.857,169
8558275,68466757921,688.0,86.2,0.851,169
8558357,68467413917,655.0,86.2,0.866,169
8558442,68468093917,680.0,86.2,0.896,169
8558529,68468789920,696.0,86.2,0.858,169
8558617,68469493921,704.0,86.2,0.869,169
8558706,68470205917,711.0,86.2,0.882,169
8558796,68470925918,720.0,86.2,0.894,169
8558881,68471605918,680.0,86.2,0.866,169
8558966,68472285918,680.0,86.2,0.888,169
8559052,68472973920,688.0,86.2,0.873,169
8559138,68473661920,688.0,86.2,0.874,169
8559230,68474397920,736.0,86.2,0.853,169
8559319,68475109920,712.0,86.2,0.872,169
8559406,68475805920,696.0,86.2,0.816,169
8559490,68476477921,672.0,86.2,0.875,169
8559567,68477093921,616.0,86.2,0.835,169
8559641,68477685921,592.0,86.2,0.847,169
8559721,68478325916,639.0,86.2,0.864,169
8559803,68478981918,656.0,86.2,0.849,169
8559888,68479661921,680.0,86.2,0.857,169
8559979,68480389920,727.0,86.2,0.857,169
8560073,68481141920,752.0,86.2,0.86,169
8560167,68481893921,752.0,86.2,0.848,169
8560258,68482621920,727.0,86.2,0.865,169
8560346,68483325918,703.0,86.2,0.846,169
8560429,68483989918,664.0,86.2,0.868,169
8560514,68484669916,679.0,86.2,0.881,169
8560601,68485365920,696.0,86.2,0.884,169
8560690,68486077918,711.0,86.2,0.882,169
8560781,68486805920,728.0,86.2,0.851,169
8560871,68487525920,720.0,86.2,0.826,169
8560956,68488205921,680.0,86.2,0.8,169
8561042,68488893921,688.0,86.2,0.782,169
8561128,68489581917,687.0,86.2,0.842,169
8561214,68490269920,688.0,86.2,0.816,169
8561299,68490949920,680.0,86.2,0.821,169
8561381,68491605917,655.0,86.2,0.869,169
8561468,68492301917,696.0,86.2,0.853,169
8561551,68492965920,664.0,86.2,0.867,169
8561635,68493637920,672.0,86.2,0.808,169
8561719,68494309917,671.0,86.2,0.833,169
8561801,68494965920,656.0,86.2,0.837,169
8561886,68495645918,679.0,86.2,0.823,169
8561969,68496309920,664.0,86.2,0.902,169
8562049,68496949921,640.0,86.2,0.843,169
8562130,68497597920,647.0,86.2,0.803,169
8562213,68498261917,663.0,86.2,0.837,169
8562296,68498925920,664.0,86.2,0.874,169
8562378,68499581920,656.0,86.2,0.881,169
8562461,68500245920,664.0,86.2,0.841,169
8562540,68500877917,631.0,86.2,0.84,169
8562624,68501549921,672.0,86.2,0.832,169
8562709,68502229920,679.0,86.2,0.835,169
8562796,68502925918,695.0,86.2,0.808,169
8562885,68503637918,712.0,86.2,0.852,169
8562971,68504325918,688.0,86.2,0.853,169
8563061,68505045920,720.0,86.2,0.856,169
8563144,68505709921,664.0,86.2,0.828,169
8563227,68506373921,664.0,86.2,0.8,169
8563312,68507053920,679.0,86.2,0.796,169
8563396,68507725920,672.0,86.2,0.855,169
8563482,68508413918,687.0,86.2,0.848,169
8563569,68509109918,696.0,86.2,0.854,169
8563656,68509805918,696.0,86.2,0.845,169
8563741,68510485920,680.0,86.2,0.841,169
8563829,68511189920,704.0,86.2,0.858,169
8563918,68511901920,712.0,86.2,0.871,169
8564010,68512637917,735.0,86.2,0.871,169
8564101,68513365920,728.0,86.2,0.9,169
8564191,68514085920,720.0,86.2,0.837,169
8564276,68514765920,680.0,86.2,0.828,169
8564362,68515453920,688.0,86.2,0.799,169
8564448,68516141920,688.0,86.2,0.926,169
8564528,68516781920,640.0,86.2,0.835,169
8564612,68517453917,671.0,86.2,0.871,169
8564697,68518133916,679.0,86.2,0.847,169
8564782,68518813917,680.0,86.2,0.878,169
8564870,68519517920,704.0,86.2,0.871,169
8564954,68520189920,672.0,86.2,0.887,169
8565041,68520885919,695.0,86.2,0.89,169
8565126,68521565920,680.0,86.2,0.874,169
8565211,68522245918,679.0,86.2,0.884,169
8565297,68522933918,688.0,86.2,0.889,169
8565381,68523605920,672.0,86.2,0.86,169
8565462,68524253918,647.0,86.2,0.837,169
8565547,68524933920,680.0,86.2,0.883,169
8565632,68525613917,679.0,86.2,0.826,169
8565712,68526253917,640.0,86.2,0.856,169
8565795,68526917920,664.0,86.2,0.856,169
8565905,68527797918,879.0,86.2,0.597,169
8566042,68528893920,1096.0,86.2,0.347,185
8566131,68529605921,712.0,86.2,0.578,185
8566219,68530309917,703.0,86.2,0.857,169
8566305,68530997917,688.0,86.2,0.695,169
8566418,68531901921,904.0,86.2,0.483,185
8566505,68532597920,695.0,86.2,0.462,185
8566586,68533245918,647.0,86.2,0.501,169
8566677,68533973920,728.0,86.2,0.613,169
8566749,68534549920,576.0,86.2,0.491,185
8566837,68535253917,703.0,86.2,0.517,169
8566928,68535981920,728.0,86.2,0.498,185
8567062,68537053920,1072.0,86.2,0.767,185
8567099,68537349920,296.0,86.2,0.473,189
8567186,68538045920,696.0,86.2,0.476,185
8567311,68539045920,1000.0,86.2,0.773,169
8567390,68539677918,631.0,86.2,0.82,169
8567470,68540317920,640.0,86.2,0.816,169
8567550,68540957920,640.0,86.2,0.819,169
8567631,68541605920,648.0,86.2,0.817,169
8567710,68542237920,632.0,86.2,0.856,169
8567792,68542893919,655.0,86.2,0.883,169
8567880,68543597916,703.0,86.2,0.873,169
8567967,68544293921,696.0,86.2,0.855,169
8568053,68544981920,687.0,86.2,0.85,169
8568137,68545653920,672.0,86.2,0.866,169
8568219,68546309920,656.0,86.2,0.871,169
8568299,68546949920,640.0,86.2,0.869,169
8568378,68547581920,632.0,86.2,0.851,169
8568456,68548205920,624.0,86.2,0.824,169
8568531,68548805920,600.0,86.2,0.799,169
8568630,68549597920,792.0,86.2,0.554,169
8568749,68550549920,952.0,86.2,0.855,169
8568821,68551125921,576.0,86.2,0.857,169
8568896,68551725920,599.0,86.2,0.881,169
8568978,68552381920,656.0,86.2,0.794,169
8569059,68553029920,648.0,86.2,0.791,169
8569146,68553725920,696.0,86.2,0.86,169
8569233,68554421916,695.0,86.2,0.884,169
8569317,68555093918,672.0,86.2,0.88,169
8569405,68555797920,704.0,86.2,0.878,169
8569494,68556509918,711.0,86.2,0.871,169
8569581,68557205920,696.0,86.2,0.843,169
8569664,68557869920,664.0,86.2,0.873,169
8569752,68558573920,704.0,86.2,0.879,169
8569838,68559261920,688.0,86.2,0.87,169
8569925,68559957920,696.0,86.2,0.886,169
8570011,68560645921,688.0,86.2,0.871,169
8570099,68561349916,703.0,86.2,0.908,169
8570179,68561989920,640.0,86.2,0.851,169
8570260,68562637920,648.0,86.2,0.879,169
8570339,68563269918,631.0,86.2,0.805,169
8570419,68563909920,640.0,86.2,0.875,169
8570500,68564557920,648.0,86.2,0.747,169
8570611,68565445920,888.0,86.2,0.532,169
8570697,68566133920,688.0,86.2,0.547,169
8570763,68566661921,528.0,86.2,0.52,169
8571163,68569861918,0.0,0.0,0.837,75
8571253,68570581918,720.0,83.3,0.818,73
8571341,68571285920,704.0,84.3,0.837,73
8571433,68572021920,736.0,83.3,0.692,73
8571523,68572741920,720.0,83.3,0.775,73
8571609,68573429917,687.0,83.3,0.909,73
8571694,68574109918,680.0,84.3,0.885,73
8571782,68574813920,704.0,85.2,0.882,73
8571870,68575517920,704.0,85.2,0.788,73
8571949,68576149920,632.0,85.2,0.855,73
8572035,68576837918,687.0,85.2,0.86,73
8572124,68577549917,711.0,85.2,0.887,73
8572216,68578285917,736.0,85.2,0.856,73
8572307,68579013921,728.0,85.2,0.848,73
8572393,68579701920,687.0,85.2,0.879,73
8572486,68580445920,744.0,85.2,0.865,73
8572576,68581165920,720.0,84.3,0.836,73
8572669,68581909920,744.0,83.3,0.801,73
8572759,68582629921,720.0,83.3,0.895,73
8572847,68583333916,703.0,83.3,0.877,73
8572936,68584045921,712.0,83.3,0.882,73
8573023,68584741920,695.0,83.3,0.849,73
8573372,68587533920,0.0,0.0,0.803,75
8573455,68588197916,663.0,90.4,0.874,73
8573537,68588853920,656.0,90.9,0.868,73
8573623,68589541920,688.0,90.4,0.866,73
8573711,68590245918,703.0,88.8,0.917,73
8573805,68590997920,752.0,87.2,0.828,73
8573896,68591725920,728.0,86.2,0.784,73
8573988,68592461920,736.0,85.2,0.785,73
8574075,68593157920,696.0,85.7,0.857,73
8574155,68593797920,640.0,86.2,0.845,73
8574236,68594445917,647.0,86.2,0.835,73
8574316,68595085917,640.0,86.2,0.847,73
8574393,68595701918,616.0,86.2,0.847,73
8574471,68596325919,624.0,92.6,0.84,73
8574556,68597005920,680.0,92.6,0.857,73
8574645,68597717916,711.0,92.6,0.886,73
8574733,68598421920,704.0,92.6,0.878,73
8574825,68599157920,736.0,92.6,0.857,73
8574918,68599901920,744.0,88.2,0.864,73
8575011,68600645919,743.0,85.2,0.822,73
8575105,68601397920,752.0,84.3,0.774,73
8575192,68602093920,696.0,84.3,0.748,73
8575276,68602765916,671.0,84.3,0.807,73
8575359,68603429920,664.0,84.3,0.868,73
8575443,68604101918,671.0,85.2,0.867,73
8575529,68604789917,687.0,86.2,0.876,73
8575618,68605501920,712.0,86.2,0.856,73
8575705,68606197920,696.0,86.2,0.848,73
8575787,68606853920,656.0,87.2,0.874,73
8575872,68607533918,679.0,88.2,0.866,73
8575960,68608237918,704.0,88.2,0.877,73
8576047,68608933920,696.0,87.2,0.873,73
8576139,68609669920,736.0,86.2,0.872,73
8576233,68610421916,751.0,86.2,0.876,73
8576328,68611181920,760.0,85.2,0.839,73
8576423,68611941920,760.0,85.2,0.826,73
8576518,68612701920,760.0,81.5,0.785,73
8576610,68613437920,736.0,81.5,0.825,73
8576696,68614125920,688.0,81.5,0.861,73
8576780,68614797918,671.0,81.5,0.837,73
8576864,68615469919,672.0,81.5,0.913,73
8576943,68616101916,631.0,81.5,0.83,73
8577027,68616773920,672.0,87.2,0.869,73
8577119,68617509921,736.0,87.2,0.833,73
8577212,68618253920,743.0,87.2,0.897,73
8577310,68619037920,784.0,87.2,0.807,73
8577408,68619821920,784.0,87.2,0.845,73
8577508,68620621917,799.0,81.5,0.794,73
8577604,68621389920,768.0,80.6,0.808,73
8577700,68622157921,768.0,78.1,0.786,73
8577791,68622885920,727.0,78.1,0.802,73
8577887,68623653920,768.0,78.1,0.853,73
8577979,68624389921,736.0,78.1,0.825,73
8578068,68625101921,712.0,78.1,0.807,73
8578152,68625773921,672.0,78.1,0.87,73
8578234,68626429919,655.0,81.5,0.887,73
8578318,68627101921,672.0,82.4,0.858,73
8578397,68627733920,631.0,84.3,0.802,73
8578531,68628805920,1072.0,84.3,0.427,185
8578645,68629717920,912.0,84.3,0.778,185
8578734,68630429917,711.0,84.3,0.759,185
8578771,68630725920,296.0,84.3,0.495,189
8578857,68631413920,688.0,84.3,0.484,185
8578943,68632101918,687.0,84.3,0.503,169
8579025,68632757920,656.0,84.3,0.502,169
8579109,68633429920,672.0,84.3,0.548,169
8579197,68634133920,704.0,84.3,0.523,169
8579283,68634821920,688.0,84.3,0.519,169
8579420,68635917920,1096.0,84.3,0.81,169
8579450,68636157920,240.0,84.3,0.525,173
8579602,68637373920,1216.0,84.3,0.8,185
8579689,68638069921,696.0,84.3,0.765,169
8579722,68638333921,264.0,84.3,0.492,189
8579791,68638885921,552.0,84.3,0.618,185
8579902,68639773920,887.0,84.3,0.871,169
8580014,68640669918,895.0,84.3,0.843,169
8580104,68641389920,720.0,84.3,0.425,185
8580163,68641861916,471.0,84.3,0.531,169
8580246,68642525916,664.0,84.3,0.883,169
8580369,68643509916,984.0,84.3,0.816,169
8580404,68643789920,280.0,84.3,0.493,189
8580518,68644701916,911.0,84.3,0.505,169
8580579,68645189921,488.0,84.3,0.852,169
8580680,68645997917,807.0,84.3,0.872,169
8580778,68646781917,784.0,84.3,0.853,169
8580879,68647589917,808.0,84.3,0.843,169
8580979,68648389920,800.0,84.3,0.761,169
8581071,68649125921,736.0,84.3,0.826,169
8581128,68649581920,455.0,84.3,0.523,169
8581267,68650693920,1112.0,84.3,0.795,185
8581323,68651141920,448.0,84.3,0.445,185
8581364,68651469918,327.0,84.3,0.798,169
8581460,68652237920,768.0,84.3,0.866,169
8581557,68653013920,776.0,84.3,0.881,169
8581654,68653789920,776.0,84.3,0.847,169
8581740,68654477920,688.0,84.3,0.785,169
8581831,68655205920,728.0,84.3,0.871,169
8581920,68655917918,711.0,84.3,0.883,169
8582009,68656629921,712.0,84.3,0.88,169
8582100,68657357920,727.0,84.3,0.849,169
8582187,68658053920,696.0,84.3,0.852,169
8582278,68658781920,728.0,84.3,0.845,169
8582373,68659541916,759.0,84.3,0.825,169
8582470,68660317920,776.0,84.3,0.786,169
8582510,68660637920,320.0,84.3,0.481,185
8582604,68661389916,751.0,84.3,0.502,169
8582697,68662133920,744.0,84.3,0.505,169
8582760,68662637918,503.0,84.3,0.849,169
8582860,68663437920,800.0,84.3,0.874,169
8582958,68664221920,784.0,84.3,0.867,169
8583048,68664941920,720.0,84.3,0.84,169
8583138,68665661920,720.0,84.3,0.881,169
8583231,68666405920,744.0,84.3,0.87,169
8583332,68667213919,807.0,84.3,0.829,169
8583368,68667501920,288.0,84.3,0.488,189
8583482,68668413917,911.0,84.3,0.497,185
8583554,68668989920,576.0,84.3,0.863,169
8583665,68669877921,888.0,84.3,0.877,169
8583768,68670701917,823.0,84.3,0.82,169
8583861,68671445921,744.0,84.3,0.782,169
8583953,68672181920,735.0,84.3,0.8,169
8583989,68672469921,288.0,84.3,0.51,173
8584104,68673389920,919.0,84.3,0.464,185
8584177,68673973920,584.0,84.3,0.508,169
8584273,68674741916,767.0,84.3,0.501,169
8584340,68675277920,536.0,84.3,0.876,169
8584451,68676165918,887.0,84.3,0.862,169
8584565,68677077920,912.0,84.3,0.794,169
8584599,68677349920,272.0,84.3,0.506,173
8584701,68678165916,815.0,84.3,0.481,185
8584796,68678925920,760.0,84.3,0.517,169
8584857,68679413917,487.0,84.3,0.857,169
8584950,68680157920,744.0,84.3,0.851,169
8585038,68680861918,703.0,84.3,0.854,169
8585129,68681589917,727.0,84.3,0.877,169
8585224,68682349917,760.0,84.3,0.889,169
8585325,68683157916,807.0,84.3,0.858,169
8585422,68683933921,776.0,84.3,0.807,169
8585521,68684725920,791.0,84.3,0.791,169
8585577,68685173920,448.0,84.3,0.474,185
8585655,68685797918,623.0,84.3,0.523,169
8585750,68686557917,759.0,84.3,0.504,169
8585845,68687317916,759.0,84.3,0.483,185
8585902,68687773918,456.0,84.3,0.862,169
8585999,68688549920,776.0,84.3,0.872,169
8586095,68689317921,768.0,84.3,0.864,169
8586187,68690053917,735.0,84.3,0.859,169
8586279,68690789920,736.0,84.3,0.869,169
8586367,68691493920,704.0,84.3,0.851,169
8586450,68692157921,664.0,84.3,0.871,169
8586529,68692789917,631.0,84.3,0.87,169
8586605,68693397920,608.0,84.3,0.656,169
8586723,68694341920,944.0,84.3,0.464,185
8586798,68694941920,600.0,84.3,0.484,185
8586866,68695485917,543.0,84.3,0.856,169
8586971,68696325918,840.0,84.3,0.787,169
8587072,68697133918,808.0,84.3,0.792,169
8587168,68697901918,768.0,84.3,0.773,169
8587257,68698613918,712.0,84.3,0.78,169
8587348,68699341920,728.0,84.3,0.795,169
8587439,68700069916,727.0,84.3,0.787,169
8587528,68700781919,712.0,84.3,0.797,169
8587568,68701101920,320.0,84.3,0.502,169
8587691,68702085919,983.0,84.3,0.826,169
8587771,68702725918,639.0,84.3,0.849,169
8587854,68703389921,664.0,84.3,0.875,169
8587940,68704077921,688.0,84.3,0.871,169
8588030,68704797920,719.0,84.3,0.844,169
8588124,68705549920,752.0,84.3,0.817,169
8588222,68706333920,784.0,84.3,0.808,169
8588258,68706621916,287.0,84.3,0.461,189
8588352,68707373920,752.0,84.3,0.549,169
8588464,68708269917,895.0,84.3,0.543,169
8588543,68708901920,632.0,84.3,0.513,169
8588630,68709597917,695.0,84.3,0.489,185
8588716,68710285920,688.0,84.3,0.491,185
8588811,68711045920,760.0,84.3,0.455,185
8588888,68711661918,615.0,84.3,0.525,169
8589003,68712581920,920.0,84.3,0.76,169
8589077,68713173921,592.0,84.3,0.813,169
8589153,68713781920,607.0,84.3,0.831,169
8589230,68714397920,616.0,84.3,0.871,169
8589310,68715037920,640.0,84.3,0.853,169
8589431,68716005917,967.0,84.3,0.779,169
8589474,68716349920,344.0,84.3,0.831,169
8589563,68717061919,711.0,84.3,0.845,169
8589656,68717805920,744.0,84.3,0.871,169
8589745,68718517917,711.0,84.3,0.794,169
8589834,68719229920,712.0,84.3,0.843,169
8589922,68719933921,704.0,84.3,0.842,169
8590009,68720629920,695.0,84.3,0.89,169
8590106,68721405920,776.0,84.3,0.845,169
8590183,68722021920,616.0,84.3,0.863,169
8590266,68722685917,663.0,84.3,0.842,169
8590350,68723357920,672.0,84.3,0.829,169
8590435,68724037920,680.0,84.3,0.834,169
8590522,68724733920,696.0,84.3,0.836,169
8590641,68725685917,951.0,84.3,0.469,185
8590718,68726301920,616.0,84.3,0.472,185
8590806,68727005921,704.0,84.3,0.526,169
8590887,68727653916,647.0,84.3,0.521,169
8591004,68728589920,936.0,84.3,0.797,169
8591080,68729197918,607.0,84.3,0.824,169
8591156,68729805920,608.0,84.3,0.853,169
8591234,68730429920,624.0,84.3,0.843,169
8591314,68731069920,640.0,84.3,0.845,169
8591393,68731701918,631.0,84.3,0.801,169
8591523,68732741921,1040.0,84.3,0.57,169
8591591,68733285920,543.0,84.3,0.503,169
8591715,68734277920,992.0,84.3,0.766,169
8591795,68734917918,639.0,84.3,0.801,169
8591878,68735581920,664.0,84.3,0.834,169
8591968,68736301920,720.0,84.3,0.828,169
8592063,68737061920,760.0,84.3,0.802,169
8592097,68737333916,271.0,84.3,0.492,189
8592194,68738109917,776.0,84.3,0.482,185
8592289,68738869921,760.0,84.3,0.482,185
8592379,68739589920,719.0,84.3,0.482,185
8592440,68740077917,487.0,84.3,0.843,169
8592534,68740829920,752.0,84.3,0.863,169
8592632,68741613920,784.0,84.3,0.881,169
8592730,68742397921,784.0,84.3,0.853,169
8592820,68743117920,719.0,84.3,0.84,169
8592910,68743837920,720.0,84.3,0.873,169
8592999,68744549919,711.0,84.3,0.868,169
8593090,68745277920,728.0,84.3,0.84,169
8593179,68745989920,712.0,84.3,0.827,169
8593269,68746709919,719.0,84.3,0.821,169
8593361,68747445920,736.0,84.3,0.815,169
8593454,68748189920,744.0,84.3,0.815,169
8593544,68748909920,720.0,84.3,0.8,169
8593633,68749621918,711.0,84.3,0.775,169
8593720,68750317919,696.0,84.3,0.792,169
8593808,68751021916,703.0,84.3,0.773,169
8593846,68751325920,304.0,84.3,0.496,185
8593939,68752069918,743.0,84.3,0.506,169
8594028,68752781920,712.0,84.3,0.543,169
8594141,68753685921,904.0,84.3,0.49,185
8594212,68754253920,567.0,84.3,0.445,185
8594289,68754869918,615.0,84.3,0.561,169
8594389,68755669921,800.0,84.3,0.816,169
8594453,68756181920,511.0,84.3,0.546,169
8594578,68757181920,1000.0,84.3,0.778,169
8594659,68757829920,648.0,84.3,0.813,169
8594745,68758517921,688.0,84.3,0.848,169
8594834,68759229920,711.0,84.3,0.836,169
8594927,68759973920,744.0,84.3,0.816,169
8595018,68760701921,728.0,84.3,0.81,169
8595104,68761389921,688.0,84.3,0.82,169
8595191,68762085917,695.0,84.3,0.827,169
8595277,68762773920,688.0,84.3,0.823,169
8595363,68763461920,688.0,84.3,0.819,169
8595453,68764181918,719.0,84.3,0.81,169
8595516,68764685920,504.0,84.3,0.5,169
8595623,68765541920,856.0,84.3,0.808,169
8595703,68766181920,640.0,84.3,0.794,169
8595782,68766813920,632.0,84.3,0.893,169
8595866,68767485921,672.0,84.3,0.888,169
8595946,68768125919,639.0,84.3,0.888,169
8596028,68768781920,656.0,84.3,0.878,169
8596108,68769421920,640.0,84.3,0.86,169
8596193,68770101917,679.0,84.3,0.861,169
8596284,68770829917,728.0,84.3,0.869,169
8596380,68771597917,768.0,84.3,0.872,169
8596473,68772341921,744.0,84.3,0.857,169
8596568,68773101921,760.0,84.3,0.847,169
8596657,68773813920,711.0,84.3,0.839,169
8596741,68774485921,672.0,84.3,0.848,169
8596825,68775157921,672.0,84.3,0.868,169
8596908,68775821917,663.0,84.3,0.897,169
8596993,68776501921,680.0,84.3,0.842,169
8597076,68777165917,663.0,84.3,0.872,169
8597152,68777773920,608.0,84.3,0.808,169
8597264,68778669917,895.0,84.3,0.546,169
8597360,68779437921,768.0,84.3,0.465,185
8597403,68779781917,343.0,84.3,0.552,185
8597493,68780501921,720.0,84.3,0.814,169
8597590,68781277917,775.0,84.3,0.836,169
8597677,68781973920,696.0,84.3,0.823,169
8597764,68782669920,696.0,84.3,0.852,169
8597853,68783381918,711.0,84.3,0.859,169
8597944,68784109916,727.0,84.3,0.886,169
8598035,68784837920,728.0,84.3,0.838,169
8598117,68785493916,655.0,84.3,0.764,169
8598205,68786197920,704.0,84.3,0.787,169
8598288,68786861920,664.0,84.3,0.868,169
8598372,68787533918,671.0,84.3,0.843,169
8598502,68788573921,1040.0,84.3,0.526,169
8598562,68789053918,479.0,84.3,0.644,169
8598647,68789733918,680.0,84.3,0.499,185
8598737,68790453920,720.0,84.3,0.502,169
8598861,68791445916,991.0,84.3,0.741,169
8598947,68792133920,688.0,84.3,0.755,169
8599034,68792829920,696.0,84.3,0.754,169
8599069,68793109917,279.0,84.3,0.533,173
8599159,68793829920,720.0,84.3,0.535,169
8599300,68794957920,1128.0,84.3,0.735,169
8599381,68795605919,647.0,84.3,0.838,169
8599429,68795989917,383.0,84.3,0.594,169
8599561,68797045918,1056.0,84.3,0.755,169
8599650,68797757920,712.0,84.3,0.704,169
8599733,68798421918,663.0,84.3,0.793,169
8599821,68799125916,703.0,84.3,0.81,169
8599912,68799853918,728.0,84.3,0.797,169
8599950,68800157918,304.0,84.3,0.5,185
8600046,68800925917,767.0,84.3,0.48,185
8600136,68801645921,720.0,84.3,0.493,185
8600224,68802349918,703.0,84.3,0.509,169
8600316,68803085918,736.0,84.3,0.491,185
8600402,68803773916,687.0,84.3,0.472,185
8600485,68804437921,664.0,84.3,0.515,169
8600571,68805125920,687.0,84.3,0.534,169
8600669,68805909917,783.0,84.3,0.476,185
8600753,68806581918,672.0,84.3,0.455,185
8600839,68807269920,688.0,84.3,0.522,169
8600931,68808005921,736.0,84.3,0.485,185
8600983,68808421918,415.0,84.3,0.815,169
8601105,68809397920,976.0,84.3,0.477,185
8601188,68810061918,663.0,84.3,0.514,169
8601280,68810797919,736.0,84.3,0.486,185
8601333,68811221920,424.0,84.3,0.846,169
8601448,68812141920,920.0,84.3,0.494,185
8601532,68812813920,672.0,84.3,0.547,169
8601628,68813581920,768.0,84.3,0.469,185
8601713,68814261920,680.0,84.3,0.488,185
8601795,68814917920,656.0,84.3,0.546,169
8601855,68815397920,480.0,84.3,0.835,169
8601949,68816149917,751.0,84.3,0.85,169
8602044,68816909921,760.0,84.3,0.873,169
8602135,68817637920,727.0,84.3,0.85,169
8602218,68818301921,664.0,84.3,0.862,169
8602306,68819005917,703.0,84.3,0.878,169
8602393,68819701918,696.0,84.3,0.871,169
8602485,68820437920,736.0,84.3,0.873,169
8602575,68821157918,719.0,84.3,0.853,169
8602658,68821821920,664.0,84.3,0.847,169
8602740,68822477918,655.0,84.3,0.863,169
8602824,68823149920,672.0,84.3,0.861,169
8602917,68823893920,744.0,84.3,0.83,169
8603001,68824565918,671.0,84.3,0.875,169
8603089,68825269917,703.0,84.3,0.864,169
8603176,68825965921,696.0,84.3,0.892,169
8603267,68826693921,728.0,84.3,0.832,169
8603355,68827397918,703.0,84.3,0.858,169
8603442,68828093920,696.0,84.3,0.777,169
8603527,68828773918,679.0,84.3,0.761,169
8603612,68829453917,679.0,84.3,0.858,169
8603695,68830117917,664.0,84.3,0.872,169
8603778,68830781920,664.0,84.3,0.822,169
8603864,68831469920,688.0,84.3,0.873,169
8603948,68832141920,672.0,84.3,0.834,169
8604036,68832845920,704.0,84.3,0.835,169
8604155,68833797921,952.0,84.3,0.496,185
8604208,68834221917,423.0,84.3,0.841,169
8604295,68834917919,696.0,84.3,0.84,169
8604384,68835629920,712.0,84.3,0.835,169
8604473,68836341918,711.0,84.3,0.841,169
8604567,68837093918,752.0,84.3,0.804,169
8604654,68837789920,696.0,84.3,0.835,169
8604739,68838469920,680.0,84.3,0.649,169
8604827,68839173918,703.0,84.3,0.701,169
8604913,68839861917,687.0,84.3,0.72,169
8605003,68840581917,720.0,84.3,0.829,169
8605090,68841277918,696.0,84.3,0.818,169
8605177,68841973920,696.0,84.3,0.883,169
8605265,68842677920,704.0,84.3,0.85,169
8605354,68843389920,712.0,84.3,0.879,169
8605443,68844101919,711.0,84.3,0.868,169
8605534,68844829921,728.0,84.3,0.786,169
8605625,68845557920,727.0,84.3,0.863,169
8605715,68846277920,720.0,84.3,0.854,169
8605802,68846973918,695.0,84.3,0.814,169
8605884,68847629921,656.0,84.3,0.893,169
8605970,68848317920,687.0,84.3,0.846,169
8606053,68848981918,663.0,84.3,0.867,169
8606167,68849893920,912.0,84.3,0.682,169
8606231,68850405920,512.0,84.3,0.581,169
8606356,68851405921,1000.0,84.3,0.829,169
8606435,68852037917,631.0,84.3,0.849,169
8606520,68852717919,680.0,84.3,0.855,169
8606608,68853421917,703.0,84.3,0.856,169
8606703,68854181920,760.0,84.3,0.827,169
8606791,68854885920,704.0,84.3,0.776,169
8606873,68855541919,655.0,84.3,0.801,169
8606959,68856229918,687.0,84.3,0.842,169
8607045,68856917920,688.0,84.3,0.838,169
8607128,68857581920,664.0,84.3,0.836,169
8607216,68858285916,703.0,84.3,0.849,169
8607301,68858965918,680.0,84.3,0.852,169
8607381,68859605918,640.0,84.3,0.855,169
8607473,68860341920,736.0,84.3,0.862,169
8607566,68861085920,744.0,84.3,0.838,169
8607661,68861845917,759.0,84.3,0.805,169
8607751,68862565920,720.0,84.3,0.802,169
8607844,68863309920,744.0,84.3,0.801,169
8607882,68863613917,303.0,84.3,0.504,169
8607972,68864333917,720.0,84.3,0.492,185
8608069,68865109920,776.0,84.3,0.495,185
8608160,68865837919,727.0,84.3,0.506,169
8608245,68866517920,680.0,84.3,0.485,185
8608326,68867165920,648.0,84.3,0.537,169
8608411,68867845916,679.0,84.3,0.544,169
8608555,68868997921,1152.0,84.3,0.788,185
8608587,68869253920,255.0,84.3,0.542,173
8608682,68870013920,760.0,84.3,0.513,169
8608745,68870517920,504.0,84.3,0.834,169
8608844,68871309920,792.0,84.3,0.86,169
8608940,68872077920,768.0,84.3,0.864,169
8609032,68872813920,736.0,84.3,0.857,169
8609130,68873597919,783.0,84.3,0.871,169
8609225,68874357920,760.0,84.3,0.825,169
8609318,68875101920,744.0,84.3,0.812,169
8609408,68875821916,719.0,84.3,0.772,169
8609491,68876485917,664.0,84.3,0.806,169
8609578,68877181920,696.0,84.3,0.839,169
8609668,68877901917,719.0,84.3,0.833,169
8609702,68878173920,272.0,84.3,0.508,173
8609859,68879429920,1256.0,84.3,0.782,169
8609892,68879693916,263.0,84.3,0.535,173
8609985,68880437920,744.0,84.3,0.494,185
8610075,68881157917,719.0,84.3,0.514,169
8610177,68881973920,816.0,84.3,0.484,185
8610227,68882373920,400.0,84.3,0.826,169
8610312,68883053918,679.0,84.3,0.821,169
8610428,68883981917,927.0,84.3,0.526,169
8610515,68884677920,696.0,84.3,0.478,185
8610590,68885277917,599.0,84.3,0.513,169
8610674,68885949921,672.0,84.3,0.512,169
8610813,68887061917,1111.0,84.3,0.802,169
8610849,68887349921,288.0,84.3,0.509,173
8610919,68887909920,559.0,84.3,0.56,185
8611016,68888685920,776.0,84.3,0.799,169
8611105,68889397921,712.0,84.3,0.801,169
8611193,68890101921,704.0,84.3,0.859,169
8611284,68890829920,727.0,84.3,0.884,169
8611380,68891597918,767.0,84.3,0.879,169
8611478,68892381917,783.0,84.3,0.853,169
8611567,68893093920,712.0,84.3,0.831,169
8611657,68893813920,720.0,84.3,0.857,169
8611745,68894517920,704.0,84.3,0.86,169
8611839,68895269920,752.0,84.3,0.844,169
8611936,68896045920,776.0,84.3,0.815,169
8612033,68896821918,775.0,84.3,0.78,169
8612065,68897077916,255.0,84.3,0.501,173
8612157,68897813919,736.0,84.3,0.478,185
8612303,68898981917,1167.0,84.3,0.79,185
8612336,68899245920,264.0,84.3,0.544,173
8612432,68900013920,768.0,84.3,0.532,169
8612492,68900493917,479.0,84.3,0.813,169
8612582,68901213920,720.0,84.3,0.829,169
8612674,68901949917,735.0,84.3,0.86,169
8612773,68902741921,792.0,84.3,0.885,169
8612875,68903557920,815.0,84.3,0.862,169
8612966,68904285918,727.0,84.3,0.804,169
8613055,68904997918,712.0,84.3,0.852,169
8613142,68905693921,696.0,84.3,0.864,169
8613231,68906405920,711.0,84.3,0.862,169
8613320,68907117920,712.0,84.3,0.848,169
8613397,68907733918,615.0,84.3,0.844,169
8613481,68908405920,672.0,84.3,0.881,169
8613565,68909077916,671.0,84.3,0.876,169
8613655,68909797918,720.0,84.3,0.882,169
8613749,68910549920,752.0,84.3,0.849,169
8613849,68911349921,800.0,84.3,0.818,169
8613943,68912101920,751.0,84.3,0.783,169
8614032,68912813917,711.0,84.3,0.788,169
8614125,68913557920,744.0,84.3,0.795,169
8614162,68913853916,295.0,84.3,0.495,189
8614250,68914557919,704.0,84.3,0.562,169
8614353,68915381920,824.0,84.3,0.546,169
8614417,68915893920,512.0,84.3,0.832,169
8614515,68916677917,783.0,84.3,0.856,169
8614608,68917421920,744.0,84.3,0.855,169
8614705,68918197916,775.0,84.3,0.871,169
8614797,68918933920,736.0,84.3,0.873,169
8614890,68919677920,744.0,84.3,0.816,169
8614979,68920389919,711.0,84.3,0.798,169
8615058,68921021921,632.0,84.3,0.833,169
8615137,68921653916,631.0,84.3,0.893,169
8615221,68922325916,672.0,84.3,0.903,169
8615312,68923053918,728.0,84.3,0.887,169
8615415,68923877921,824.0,84.3,0.841,169
8615519,68924709920,831.0,84.3,0.817,169
8615559,68925029920,320.0,84.3,0.545,169
8615685,68926037920,1008.0,84.3,0.476,185
8615767,68926693917,655.0,84.3,0.457,185
8615806,68927005920,312.0,84.3,0.72,169
8615905,68927797920,792.0,84.3,0.795,169
8615995,68928517920,720.0,84.3,0.809,169
8616085,68929237917,719.0,84.3,0.844,169
8616179,68929989918,752.0,84.3,0.896,169
8616275,68930757920,768.0,84.3,0.871,169
8616370,68931517920,760.0,84.3,0.821,169
8616460,68932237919,719.0,84.3,0.81,169
8616560,68933037920,800.0,84.3,0.807,169
8616597,68933333916,295.0,84.3,0.476,189
8616758,68934621920,1288.0,84.3,0.29,185
8616860,68935437916,815.0,84.3,0.843,169
8616958,68936221921,784.0,84.3,0.862,169
8617054,68936989920,767.0,84.3,0.865,169
8617147,68937733920,744.0,84.3,0.856,169
8617234,68938429916,695.0,84.3,0.856,169
8617321,68939125920,696.0,84.3,0.865,169
8617412,68939853921,728.0,84.3,0.872,169
8617504,68940589920,735.0,84.3,0.858,169
8617599,68941349920,760.0,84.3,0.832,169
8617693,68942101920,752.0,84.3,0.805,169
8617781,68942805918,703.0,84.3,0.776,169
8617874,68943549920,744.0,84.3,0.789,169
8617910,68943837917,287.0,84.3,0.5,189
8618003,68944581917,744.0,84.3,0.528,169
8618105,68945397920,816.0,84.3,0.483,185
8618160,68945837920,440.0,84.3,0.834,169
8618247,68946533920,696.0,84.3,0.818,169
8618363,68947461920,928.0,84.3,0.545,169
8618451,68948165920,704.0,84.3,0.505,169
8618535,68948837917,671.0,84.3,0.482,185
8618620,68949517920,680.0,84.3,0.483,185
8618713,68950261917,743.0,84.3,0.495,185
8618771,68950725920,464.0,84.3,0.833,169
8618871,68951525921,800.0,84.3,0.852,169
8618967,68952293920,767.0,84.3,0.864,169
8619054,68952989920,696.0,84.3,0.919,169
8619140,68953677920,688.0,84.3,0.848,169
8619224,68954349917,671.0,84.3,0.834,169
8619307,68955013918,664.0,84.3,0.811,169
8619388,68955661921,648.0,84.3,0.826,169
8619469,68956309921,648.0,84.3,0.804,169
8619595,68957317919,1007.0,84.3,0.494,185
8619700,68958157918,839.0,84.3,0.416,185
8619774,68958749920,592.0,84.3,0.521,169
8619826,68959165920,416.0,84.3,0.894,169
8619914,68959869921,704.0,84.3,0.659,169
8620024,68960749919,879.0,84.3,0.813,169
8620108,68961421916,671.0,84.3,0.76,169
8620472,68964333920,0.0,0.0,0.795,75
8620564,68965069920,736.0,81.5,0.915,73
8620660,68965837920,768.0,79.8,0.842,73
8620751,68966565921,728.0,81.5,0.859,73
8620840,68967277920,711.0,82.0,0.807,73
8620932,68968013916,735.0,81.5,0.846,73
8621023,68968741917,728.0,82.0,0.862,73
8621104,68969389921,648.0,82.4,0.794,73
8621192,68970093917,703.0,82.4,0.86,73
8621279,68970789916,695.0,82.4,0.855,73
8621359,68971429917,640.0,84.3,0.808,73
8621479,68972389917,960.0,84.3,0.472,185
8621616,68973485920,1096.0,84.3,0.764,185
8621647,68973733920,248.0,84.3,0.546,173
8621735,68974437917,703.0,84.3,0.512,169
8621824,68975149917,712.0,84.3,0.512,169
8621904,68975789920,640.0,84.3,0.538,169
8621992,68976493920,704.0,84.3,0.553,169
8622137,68977653917,1159.0,84.3,0.765,169
8622169,68977909920,256.0,84.3,0.501,173
8622264,68978669920,760.0,84.3,0.515,169
8622355,68979397920,728.0,84.3,0.528,169
8622450,68980157917,759.0,84.3,0.481,185
8622539,68980869920,712.0,84.3,0.485,185
8622614,68981469918,599.0,84.3,0.523,169
8622734,68982429920,960.0,84.3,0.489,185
8622795,68982917916,487.0,84.3,0.569,169
8622895,68983717918,800.0,84.3,0.493,185
8622977,68984373921,656.0,84.3,0.489,185
8623060,68985037920,663.0,84.3,0.485,185
8623156,68985805920,768.0,84.3,0.565,169
8623247,68986533920,728.0,84.3,0.456,185
8623337,68987253916,719.0,84.3,0.496,185
8623429,68987989920,736.0,84.3,0.509,169
8623513,68988661920,672.0,84.3,0.593,169
8623655,68989797920,1136.0,84.3,0.743,185
8623709,68990229920,432.0,84.3,0.464,185
8623780,68990797920,568.0,84.3,0.465,185
8623868,68991501920,704.0,84.3,0.509,169
8624011,68992645920,1144.0,84.3,0.79,185
8624044,68992909920,264.0,84.3,0.498,189
8624133,68993621920,712.0,84.3,0.495,185
8624272,68994733918,1111.0,84.3,0.785,169
8624303,68994981917,247.0,84.3,0.507,173
8624401,68995765918,784.0,84.3,0.475,185
8624491,68996485920,720.0,84.3,0.498,185
8624631,68997605916,1119.0,84.3,0.782,169
8624715,68998277920,672.0,84.3,0.759,169
8624803,68998981920,704.0,84.3,0.793,169
8624895,68999717917,735.0,84.3,0.74,169
8624981,69000405920,688.0,84.3,0.811,169
8625067,69001093920,688.0,84.3,0.791,169
8625154,69001789920,696.0,84.3,0.827,169
8625244,69002509918,719.0,84.3,0.793,169
8625330,69003197920,688.0,84.3,0.766,169
8625416,69003885920,688.0,84.3,0.761,169
8625501,69004565920,680.0,84.3,0.816,169
8625587,69005253920,688.0,84.3,0.852,169
8625675,69005957920,704.0,84.3,0.837,169
8625763,69006661920,704.0,84.3,0.843,169
8625846,69007325916,663.0,84.3,0.854,169
8625934,69008029920,704.0,84.3,0.852,169
8626023,69008741920,712.0,84.3,0.826,169
8626115,69009477916,735.0,84.3,0.87,169
8626203,69010181921,704.0,84.3,0.815,169
8626291,69010885920,703.0,84.3,0.85,169
8626380,69011597917,711.0,84.3,0.849,169
8626466,69012285920,688.0,84.3,0.855,169
8626554,69012989920,704.0,84.3,0.891,169
8626641,69013685916,695.0,84.3,0.872,169
8626730,69014397917,712.0,84.3,0.886,169
8626816,69015085917,688.0,84.3,0.862,169
8626899,69015749920,664.0,84.3,0.874,169
8626978,69016381917,631.0,84.3,0.835,169
8627057,69017013920,632.0,84.3,0.805,169
8627174,69017949917,935.0,84.3,0.53,169
8627227,69018373917,424.0,84.3,0.578,185
8627319,69019109920,736.0,84.3,0.806,169
8627414,69019869920,760.0,84.3,0.865,169
8627503,69020581920,712.0,84.3,0.782,169
8627589,69021269917,687.0,84.3,0.842,169
8627711,69022245920,976.0,84.3,0.461,185
8627797,69022933916,687.0,84.3,0.481,185
8627904,69023789920,856.0,84.3,0.704,169
8627964,69024269917,479.0,84.3,0.57,169
8628061,69025045920,776.0,84.3,0.51,169
8628131,69025605921,560.0,84.3,0.783,169
8628249,69026549916,943.0,84.3,0.859,169
8628318,69027101918,552.0,84.3,0.758,169
8628394,69027709920,608.0,84.3,0.677,169
8628541,69028885921,1176.0,84.3,0.755,169
8628616,69029485921,600.0,84.3,0.806,169
8628696,69030125921,640.0,84.3,0.853,169
8628779,69030789920,663.0,84.3,0.857,169
8628862,69031453921,664.0,84.3,0.866,169
8628947,69032133918,679.0,84.3,0.886,169
8629034,69032829917,695.0,84.3,0.885,169
8629124,69033549920,720.0,84.3,0.872,169
8629209,69034229918,679.0,84.3,0.855,169
8629292,69034893916,663.0,84.3,0.865,169
8629376,69035565921,672.0,84.3,0.869,169
8629461,69036245920,679.0,84.3,0.827,169
8629545,69036917921,672.0,84.3,0.794,169
8629667,69037893920,975.0,84.3,0.53,169
8629775,69038757920,864.0,84.3,0.781,169
8629850,69039357920,600.0,84.3,0.822,169
8629922,69039933920,576.0,84.3,0.869,169
8629993,69040501921,568.0,84.3,0.83,169
8630134,69041629918,1127.0,84.3,0.773,169
8630203,69042181917,551.0,84.3,0.876,169
8630282,69042813918,632.0,84.3,0.911,169
8630375,69043557920,744.0,84.3,0.896,169
8630470,69044317921,760.0,84.3,0.834,169
8630568,69045101920,783.0,84.3,0.798,169
8630670,69045917921,816.0,84.3,0.742,169
8630703,69046181920,263.0,84.3,0.433,189
8630809,69047029920,848.0,84.3,0.503,169
8630903,69047781920,752.0,84.3,0.482,185
8630975,69048357921,576.0,84.3,0.886,169
8631067,69049093920,735.0,84.3,0.723,169
8631162,69049853920,760.0,84.3,0.752,169
8631250,69050557920,704.0,84.3,0.827,169
8631333,69051221920,664.0,84.3,0.877,169
8631421,69051925920,704.0,84.3,0.774,169
8631508,69052621918,695.0,84.3,0.857,169
8631597,69053333918,712.0,84.3,0.785,169
8631684,69054029916,695.0,84.3,0.838,169
8631815,69055077917,1048.0,84.3,0.578,169
8631885,69055637921,560.0,84.3,0.724,169
8631964,69056269917,631.0,84.3,0.558,169
8632098,69057341920,1072.0,84.3,0.854,169
8632182,69058013916,671.0,84.3,0.747,169
8632263,69058661918,648.0,84.3,0.76,169
8632344,69059309920,648.0,84.3,0.825,169
8632428,69059981920,672.0,84.3,0.903,169
8632511,69060645920,664.0,84.3,0.825,169
8632594,69061309916,663.0,84.3,0.816,169
8632676,69061965920,656.0,84.3,0.824,169
8632764,69062669920,704.0,84.3,0.874,169
8632848,69063341920,672.0,84.3,0.89,169
8632927,69063973917,631.0,84.3,0.738,169
8633091,69065285920,1312.0,84.3,0.803,185
8633126,69065565917,279.0,84.3,0.568,173
8633258,69066621920,1056.0,84.3,0.78,169
8633345,69067317920,696.0,84.3,0.664,169
8633433,69068021920,704.0,84.3,0.771,169
8633520,69068717917,695.0,84.3,0.775,169
8633599,69069349916,631.0,84.3,0.81,169
8633688,69070061921,712.0,84.3,0.847,169
8633772,69070733920,671.0,84.3,0.815,169
8633858,69071421918,687.0,84.3,0.871,169
8633941,69072085919,664.0,84.3,0.868,169
8634022,69072733920,648.0,84.3,0.821,169
8634104,69073389920,656.0,84.3,0.804,169
8634188,69074061920,672.0,84.3,0.876,169
8634268,69074701917,639.0,84.3,0.82,169
8634351,69075365917,664.0,84.3,0.795,169
8634462,69076253920,888.0,84.3,0.535,169
8634548,69076941916,687.0,84.3,0.518,169
8634637,69077653916,712.0,84.3,0.518,169
8634761,69078645920,992.0,84.3,0.822,169
8634843,69079301918,655.0,84.3,0.853,169
8634926,69079965920,664.0,84.3,0.859,169
8635010,69080637921,672.0,84.3,0.808,169
8635091,69081285920,647.0,84.3,0.854,169
8635174,69081949920,664.0,84.3,0.906,169
8635253,69082581920,632.0,84.3,0.872,169
8635332,69083213920,632.0,84.3,0.847,169
8635445,69084117918,903.0,84.3,0.528,169
8635575,69085157918,1040.0,84.3,0.807,169
8635635,69085637921,480.0,84.3,0.51,169
8635742,69086493918,855.0,84.3,0.785,169
8635828,69087181921,688.0,84.3,0.835,169
8635913,69087861921,680.0,84.3,0.852,169
8635994,69088509917,647.0,84.3,0.838,169
8636072,69089133920,624.0,84.3,0.83,169
8636153,69089781921,648.0,84.3,0.859,169
8636233,69090421920,639.0,84.3,0.84,169
8636315,69091077920,656.0,84.3,0.806,169
8636474,69092349918,1271.0,84.3,0.774,185
8636504,69092589921,240.0,84.3,0.51,173
8636632,69093613918,1023.0,84.3,0.761,169
8636711,69094245920,632.0,84.3,0.799,169
8636792,69094893918,647.0,84.3,0.844,169
8636876,69095565917,671.0,84.3,0.858,169
8636966,69096285920,720.0,84.3,0.819,169
8637046,69096925920,640.0,84.3,0.748,169
8637124,69097549920,624.0,84.3,0.794,169
8637203,69098181920,632.0,84.3,0.81,169
8637355,69099397917,1215.0,84.3,0.845,169
8637394,69099709918,312.0,84.3,0.543,169
8637501,69100565918,856.0,84.3,0.794,169
8637570,69101117918,552.0,84.3,0.814,169
8637646,69101725917,607.0,84.3,0.784,169
8637759,69102629921,904.0,84.3,0.493,185
8637880,69103597920,967.0,84.3,0.787,169
8637954,69104189920,592.0,84.3,0.779,169
8638027,69104773916,583.0,84.3,0.894,169
8638106,69105405921,632.0,84.3,0.808,169
8638184,69106029921,624.0,84.3,0.847,169
8638343,69107301920,1271.0,84.3,0.788,185
8638423,69107941918,639.0,84.3,0.788,169
8638500,69108557920,616.0,84.3,0.776,169
8638577,69109173921,616.0,84.3,0.83,169
8638656,69109805918,631.0,84.3,0.821,169
8638734,69110429921,624.0,84.3,0.824,169
8638813,69111061920,631.0,84.3,0.809,169
8638890,69111677920,616.0,84.3,0.742,169
8639039,69112869920,1192.0,84.3,0.756,169
8639113,69113461920,592.0,84.3,0.831,169
8639187,69114053916,591.0,84.3,0.862,169
8639267,69114693920,640.0,84.3,0.867,169
8639350,69115357920,664.0,84.3,0.853,169
8639435,69116037920,680.0,84.3,0.876,169
8639523,69116741920,704.0,84.3,0.847,169
8639612,69117453920,712.0,84.3,0.867,169
8639693,69118101920,648.0,84.3,0.813,169
8639857,69119413916,1311.0,84.3,0.813,185
8639939,69120069920,656.0,84.3,0.782,169
8640019,69120709920,640.0,84.3,0.774,169
8640103,69121381917,671.0,84.3,0.784,169
8640187,69122053921,672.0,84.3,0.798,169
8640261,69122645918,591.0,84.3,0.831,169
8640347,69123333920,688.0,84.3,0.859,169
8640431,69124005920,672.0,84.3,0.87,169
8640515,69124677920,672.0,84.3,0.796,169
8640600,69125357918,679.0,84.3,0.811,169
8640686,69126045917,687.0,84.3,0.841,169
8640774,69126749920,704.0,84.3,0.873,169
8640863,69127461920,712.0,84.3,0.858,169
8640955,69128197920,736.0,84.3,0.864,169
8641042,69128893917,695.0,84.3,0.867,169
8641123,69129541920,648.0,84.3,0.824,169
8641208,69130221920,680.0,84.3,0.855,169
8641320,69131117919,895.0,84.3,0.52,169
8641403,69131781920,664.0,84.3,0.577,169
8641523,69132741920,960.0,84.3,0.572,169
8641601,69133365920,624.0,84.3,0.492,185
8641688,69134061920,696.0,84.3,0.508,169
8641805,69134997920,936.0,84.3,0.729,169
8641889,69135669920,672.0,84.3,0.743,169
8641973,69136341920,672.0,84.3,0.81,169
8642059,69137029921,688.0,84.3,0.819,169
8642148,69137741920,711.0,84.3,0.833,169
8642236,69138445919,703.0,84.3,0.825,169
8642319,69139109920,664.0,84.3,0.859,169
8642405,69139797920,688.0,84.3,0.781,169
8642489,69140469920,672.0,84.3,0.803,169
8642570,69141117920,648.0,84.3,0.761,169
8642657,69141813920,696.0,84.3,0.832,169
8642742,69142493917,679.0,84.3,0.867,169
8642822,69143133921,640.0,84.3,0.719,169
8642907,69143813920,679.0,84.3,0.853,169
8642999,69144549916,735.0,84.3,0.908,169
8643083,69145221917,672.0,84.3,0.716,169
8643176,69145965917,744.0,84.3,0.682,169
8643263,69146661920,696.0,84.3,0.792,169
8643343,69147301920,640.0,84.3,0.877,169
8643429,69147989920,688.0,84.3,0.752,169
8643522,69148733920,744.0,84.3,0.862,169
8643613,69149461920,728.0,84.3,0.807,169
8643709,69150229920,768.0,84.3,0.816,169
8643806,69151005920,776.0,84.3,0.91,169
8643899,69151749920,744.0,84.3,0.883,169
8643991,69152485920,736.0,84.3,0.852,169
8644083,69153221920,736.0,84.3,0.846,169
8644172,69153933920,712.0,84.3,0.839,169
8644260,69154637916,703.0,84.3,0.849,169
8644350,69155357920,720.0,84.3,0.813,169
8644447,69156133920,776.0,84.3,0.85,169
8644535,69156837920,704.0,84.3,0.735,169
8644623,69157541920,704.0,84.3,0.911,169
8644704,69158189918,647.0,84.3,0.818,169
8644785,69158837917,647.0,84.3,0.786,169
8644870,69159517920,680.0,84.3,0.783,169
8644956,69160205920,688.0,84.3,0.875,169
8645042,69160893918,687.0,84.3,0.814,169
8645131,69161605920,712.0,84.3,0.877,169
8645222,69162333917,727.0,84.3,0.868,169
8645313,69163061920,728.0,84.3,0.862,169
8645408,69163821920,760.0,84.3,0.849,169
8645499,69164549918,727.0,84.3,0.843,169
8645584,69165229920,680.0,84.3,0.891,169
8645667,69165893920,664.0,84.3,0.863,169
8645751,69166565921,672.0,84.3,0.879,169
8645838,69167261920,695.0,84.3,0.766,169
8645922,69167933920,672.0,84.3,0.817,169
8646026,69168765918,831.0,84.3,0.497,185
8646157,69169813920,1048.0,84.3,0.822,169
8646238,69170461918,647.0,84.3,0.864,169
8646323,69171141920,680.0,84.3,0.852,169
8646409,69171829920,688.0,84.3,0.85,169
8646495,69172517917,687.0,84.3,0.775,169
8646593,69173301916,783.0,84.3,0.832,169
8646689,69174069920,768.0,84.3,0.79,169
8646775,69174757917,687.0,84.3,0.766,169
8646858,69175421920,664.0,84.3,0.788,169
8646946,69176125920,704.0,84.3,0.84,169
8647037,69176853918,727.0,84.3,0.839,169
8647127,69177573920,720.0,84.3,0.826,169
8647212,69178253920,680.0,84.3,0.806,169
8647301,69178965920,712.0,84.3,0.819,169
8647383,69179621918,655.0,84.3,0.852,169
8647464,69180269917,647.0,84.3,0.886,169
8647540,69180877920,608.0,84.3,0.872,169
8647619,69181509920,632.0,84.3,0.845,169
8647731,69182405917,895.0,84.3,0.522,169
8647863,69183461917,1056.0,84.3,0.791,185
8647942,69184093917,632.0,84.3,0.799,169
8648016,69184685921,592.0,84.3,0.805,169
8648093,69185301920,615.0,84.3,0.877,169
8648172,69185933920,632.0,84.3,0.866,169
8648251,69186565918,631.0,84.3,0.84,169
8648330,69187197920,632.0,84.3,0.813,169
8648445,69188117919,919.0,84.3,0.46,185
8648520,69188717921,600.0,84.3,0.508,169
8648645,69189717921,1000.0,84.3,0.805,169
8648728,69190381920,663.0,84.3,0.81,169
8648810,69191037920,656.0,84.3,0.83,169
8648891,69191685920,648.0,84.3,0.85,169
8648972,69192333921,648.0,84.3,0.853,169
8649048,69192941921,608.0,84.3,0.808,169
8649160,69193837920,895.0,84.3,0.475,185
8649275,69194757918,919.0,84.3,0.79,169
8649350,69195357920,600.0,84.3,0.824,169
8649428,69195981920,624.0,84.3,0.842,169
8649505,69196597920,616.0,84.3,0.851,169
8649583,69197221917,623.0,84.3,0.835,169
8649658,69197821918,600.0,84.3,0.781,169
8649775,69198757917,935.0,84.3,0.647,169
8649901,69199765917,1008.0,84.3,0.764,169
8649978,69200381920,616.0,84.3,0.794,169
8650053,69200981921,600.0,84.3,0.617,169
8650136,69201645919,663.0,84.3,0.853,169
8650225,69202357917,711.0,84.3,0.784,169
8650315,69203077920,720.0,84.3,0.815,169
8650414,69203869920,792.0,84.3,0.756,169
8650503,69204581920,712.0,84.3,0.84,169
8650593,69205301921,720.0,84.3,0.851,169
8650689,69206069916,767.0,84.3,0.841,169
8650790,69206877920,808.0,84.3,0.804,169
8650825,69207157920,280.0,84.3,0.491,189
8650929,69207989916,831.0,84.3,0.556,169
8650996,69208525918,536.0,84.3,0.826,169
8651089,69209269920,744.0,84.3,0.794,169
8651185,69210037916,767.0,84.3,0.858,169
8651281,69210805920,768.0,84.3,0.878,169
8651380,69211597920,792.0,84.3,0.88,169
8651476,69212365920,768.0,84.3,0.844,169
8651573,69213141921,776.0,84.3,0.836,169
8651675,69213957917,815.0,84.3,0.807,169
8651709,69214229917,272.0,84.3,0.499,189
8651812,69215053920,824.0,84.3,0.488,185
8651883,69215621921,568.0,84.3,0.832,169
8651996,69216525917,903.0,84.3,0.896,169
8652116,69217485921,960.0,84.3,0.829,169
8652192,69218093921,608.0,84.3,0.476,185
8652265,69218677921,584.0,84.3,0.609,169
8652333,69219221916,543.0,84.3,0.846,169
8652439,69220069920,848.0,84.3,0.877,169
8652536,69220845918,775.0,84.3,0.824,169
8652625,69221557918,712.0,84.3,0.833,169
8652717,69222293918,736.0,84.3,0.867,169
8652810,69223037921,744.0,84.3,0.86,169
8652904,69223789920,751.0,84.3,0.863,169
8652994,69224509920,720.0,84.3,0.829,169
8653098,69225341917,831.0,84.3,0.821,169
8653201,69226165920,824.0,84.3,0.782,169
8653301,69226965920,800.0,84.3,0.292,185
8653400,69227757920,792.0,84.3,0.824,169
8653498,69228541920,784.0,84.3,0.877,169
8653594,69229309920,768.0,84.3,0.892,169
8653691,69230085920,776.0,84.3,0.873,169
8653780,69230797920,712.0,84.3,0.858,169
8653876,69231565920,768.0,84.3,0.878,169
8653973,69232341921,776.0,84.3,0.855,169
8654079,69233189921,848.0,84.3,0.803,169
8654187,69234053918,863.0,84.3,0.758,185
8654221,69234325920,272.0,84.3,0.509,173
8654287,69234853917,527.0,84.3,0.8,169
8654396,69235725918,872.0,84.3,0.866,169
8654495,69236517920,792.0,84.3,0.868,169
8654593,69237301920,784.0,84.3,0.847,169
8654685,69238037917,735.0,84.3,0.836,169
8654784,69238829921,792.0,84.3,0.816,169
8654880,69239597920,767.0,84.3,0.8,169
8654915,69239877920,280.0,84.3,0.505,173
8655059,69241029920,1152.0,84.3,0.797,169
8655093,69241301920,272.0,84.3,0.502,173
8655241,69242485921,1184.0,84.3,0.8,169
8655340,69243277920,791.0,84.3,0.79,185
8655374,69243549917,271.0,84.3,0.529,173
8655473,69244341917,792.0,84.3,0.484,185
8655538,69244861918,520.0,84.3,0.85,169
8655640,69245677920,816.0,84.3,0.865,169
8655739,69246469917,791.0,84.3,0.85,169
8655838,69247261920,792.0,84.3,0.838,169
8655943,69248101920,840.0,84.3,0.808,169
8655977,69248373920,272.0,84.3,0.498,189
8656084,69249229920,856.0,84.3,0.516,169
8656189,69250069920,840.0,84.3,0.494,185
8656275,69250757920,688.0,84.3,0.456,185
8656384,69251629920,872.0,84.3,0.52,169
8656456,69252205917,575.0,84.3,0.56,169
8656517,69252693921,488.0,84.3,0.848,169
8656617,69253493920,799.0,84.3,0.851,169
8656716,69254285920,792.0,84.3,0.85,169
8656818,69255101917,815.0,84.3,0.853,169
8656910,69255837918,736.0,84.3,0.789,169
8657013,69256661920,824.0,84.3,0.781,169
8657047,69256933920,272.0,84.3,0.467,189
8657153,69257781920,848.0,84.3,0.491,185
8657288,69258861920,1080.0,84.3,0.553,169
8657320,69259117917,255.0,84.3,0.852,173
8657420,69259917920,800.0,84.3,0.845,169
8657512,69260653920,736.0,84.3,0.846,169
8657607,69261413920,760.0,84.3,0.84,169
8657696,69262125920,712.0,84.3,0.879,169
8657779,69262789920,664.0,84.3,0.866,169
8657865,69263477921,688.0,84.3,0.898,169
8657950,69264157916,679.0,84.3,0.851,169
8658031,69264805919,648.0,84.3,0.833,169
8658115,69265477920,672.0,84.3,0.831,169
8658234,69266429920,952.0,84.3,0.517,169
8658360,69267437920,1008.0,84.3,0.779,169
8658395,69267717920,280.0,84.3,0.541,173
8658530,69268797921,1080.0,84.3,0.676,169
8658584,69269229916,431.0,84.3,0.558,169
8658718,69270301920,1072.0,84.3,0.78,169
8658758,69270621920,320.0,84.3,0.514,169
8658851,69271365917,743.0,84.3,0.516,169
8658944,69272109920,744.0,84.3,0.482,185
8659041,69272885920,776.0,84.3,0.463,185
8659097,69273333917,447.0,84.3,0.856,169
8659192,69274093920,760.0,84.3,0.833,169
8659282,69274813920,720.0,84.3,0.812,169
8659383,69275621920,808.0,84.3,0.875,169
8659485,69276437921,816.0,84.3,0.848,169
8659585,69277237920,799.0,84.3,0.758,169
8659686,69278045920,808.0,84.3,0.775,169
8659728,69278381920,336.0,84.3,0.505,169
8659887,69279653920,1272.0,84.3,0.309,185
8659992,69280493920,840.0,84.3,0.82,169
8660083,69281221917,727.0,84.3,0.894,169
8660173,69281941917,720.0,84.3,0.835,169
8660264,69282669920,728.0,84.3,0.872,169
8660363,69283461917,791.0,84.3,0.842,169
8660457,69284213921,752.0,84.3,0.853,169
8660550,69284957920,743.0,84.3,0.904,169
8660649,69285749916,791.0,84.3,0.795,169
8660754,69286589921,840.0,84.3,0.784,169
8660789,69286869921,280.0,84.3,0.451,189
8660868,69287501920,631.0,84.3,0.573,185
8660992,69288493921,992.0,84.3,0.905,169
8661118,69289501916,1007.0,84.3,0.811,169
8661153,69289781920,280.0,84.3,0.527,173
8661246,69290525919,743.0,84.3,0.884,169
8661360,69291437920,912.0,84.3,0.837,169
8661470,69292317920,880.0,84.3,0.824,169
8661510,69292637919,319.0,84.3,0.498,185
8661620,69293517916,879.0,84.3,0.503,169
8661692,69294093921,576.0,84.3,0.874,169
8661800,69294957920,863.0,84.3,0.878,169
8661905,69295797920,840.0,84.3,0.823,169
8662004,69296589917,791.0,84.3,0.777,169
8662041,69296885920,296.0,84.3,0.457,189
8662192,69298093920,1208.0,84.3,0.786,185
8662229,69298389918,295.0,84.3,0.502,173
8662329,69299189920,800.0,84.3,0.466,185
8662390,69299677920,488.0,84.3,0.838,169
8662491,69300485920,808.0,84.3,0.877,169
8662599,69301349917,863.0,84.3,0.859,169
8662715,69302277920,928.0,84.3,0.791,169
8662751,69302565916,287.0,84.3,0.5,173
8662840,69303277917,712.0,84.3,0.853,169
8662949,69304149920,872.0,84.3,0.866,169
8663050,69304957919,807.0,84.3,0.867,169
8663149,69305749916,791.0,84.3,0.826,169
8663246,69306525920,776.0,84.3,0.796,169
8663340,69307277920,752.0,84.3,0.778,169
8663430,69307997920,720.0,84.3,0.789,169
8663465,69308277917,279.0,84.3,0.503,173
8663617,69309493917,1216.0,84.3,0.793,185
8663713,69310261917,768.0,84.3,0.785,185
8663716,69310285919,24.0,84.3,0.538,189
8663813,69311061920,776.0,84.3,0.835,169
8663912,69311853918,791.0,84.3,0.874,169
8664015,69312677920,824.0,84.3,0.877,169
8664123,69313541920,864.0,84.3,0.819,169
8664222,69314333920,792.0,84.3,0.805,169
8664257,69314613920,280.0,84.3,0.484,189
8664360,69315437917,823.0,84.3,0.537,169
8664463,69316261921,824.0,84.3,0.491,185
8664553,69316981920,719.0,84.3,0.482,185
8664644,69317709921,728.0,84.3,0.472,185
8664733,69318421921,712.0,84.3,0.515,169
8664789,69318869920,447.0,84.3,0.842,169
8664887,69319653920,784.0,84.3,0.857,169
8664982,69320413920,760.0,84.3,0.846,169
8665073,69321141918,727.0,84.3,0.866,169
8665169,69321909916,767.0,84.3,0.885,169
8665264,69322669919,760.0,84.3,0.861,169
8665359,69323429920,760.0,84.3,0.866,169
8665452,69324173917,743.0,84.3,0.816,169
8665541,69324885920,712.0,84.3,0.852,169
8665632,69325613920,728.0,84.3,0.869,169
8665721,69326325920,712.0,84.3,0.79,169
8665803,69326981921,656.0,84.3,0.715,169
8665886,69327645920,663.0,84.3,0.8,169
8665973,69328341917,695.0,84.3,0.788,169
8666050,69328957921,616.0,84.3,0.813,169
8666132,69329613921,656.0,84.3,0.873,169
8666251,69330565917,951.0,84.3,0.501,169
8666336,69331245916,679.0,84.3,0.453,185
8666458,69332221917,976.0,84.3,0.77,169
8666541,69332885921,664.0,84.3,0.788,169
8666633,69333621920,735.0,84.3,0.802,169
8666705,69334197917,575.0,84.3,0.386,185
8666766,69334685918,488.0,84.3,0.545,169
8666831,69335205920,520.0,84.3,0.54,185
8666956,69336205920,1000.0,84.3,0.511,169
8667014,69336669919,463.0,84.3,0.866,169
8667102,69337373918,703.0,84.3,0.812,169
8667224,69338349917,975.0,84.3,0.537,169
8667308,69339021920,672.0,84.3,0.488,185
8667399,69339749917,727.0,84.3,0.512,169
8667520,69340717921,968.0,84.3,0.801,169
8667604,69341389918,671.0,84.3,0.82,169
8667691,69342085920,696.0,84.3,0.771,169
8667775,69342757920,672.0,84.3,0.86,169
8667863,69343461917,703.0,84.3,0.755,169
8667952,69344173917,712.0,84.3,0.803,169
8668045,69344917920,744.0,84.3,0.754,169
8668133,69345621920,704.0,84.3,0.827,169
8668222,69346333917,711.0,84.3,0.824,169
8668310,69347037920,704.0,84.3,0.817,169
8668398,69347741921,704.0,84.3,0.8,169
8668484,69348429920,687.0,84.3,0.814,169
8668567,69349093920,664.0,84.3,0.844,169
8668654,69349789920,696.0,84.3,0.861,169
8668744,69350509921,720.0,84.3,0.834,169
8668828,69351181919,671.0,84.3,0.881,169
8668915,69351877920,696.0,84.3,0.865,169
8669005,69352597918,719.0,84.3,0.862,169
8669096,69353325921,728.0,84.3,0.856,169
8669187,69354053920,727.0,84.3,0.837,169
8669271,69354725920,672.0,84.3,0.845,169
8669362,69355453916,727.0,84.3,0.871,169
8669452,69356173921,720.0,84.3,0.838,169
8669540,69356877920,703.0,84.3,0.863,169
8669625,69357557916,679.0,84.3,0.877,169
8669712,69358253917,696.0,84.3,0.884,169
8669800,69358957920,704.0,84.3,0.879,169
8669886,69359645920,688.0,84.3,0.871,169
8669973,69360341917,695.0,84.3,0.797,169
8670061,69361045920,704.0,84.3,0.884,169
8670149,69361749920,704.0,84.3,0.907,169
8670239,69362469918,719.0,84.3,0.79,169
8670316,69363085918,616.0,84.3,0.763,169
8670406,69363805918,720.0,84.3,0.757,169
8670546,69364925918,1120.0,84.3,0.486,185
8670612,69365453918,528.0,84.3,0.546,169
8670682,69366013918,560.0,84.3,0.603,169
8670775,69366757917,743.0,84.3,0.499,185
8670870,69367517921,760.0,84.3,0.464,185
8670958,69368221918,703.0,84.3,0.485,185
8671044,69368909920,688.0,84.3,0.492,185
8671133,69369621920,712.0,84.3,0.496,185
8671226,69370365916,743.0,84.3,0.502,169
8671318,69371101921,736.0,84.3,0.492,185
8671410,69371837920,735.0,84.3,0.491,185
8671466,69372285920,448.0,84.3,0.828,169
8671559,69373029920,744.0,84.3,0.835,169
8671656,69373805918,775.0,84.3,0.861,169
8671751,69374565917,759.0,84.3,0.882,169
8671842,69375293920,728.0,84.3,0.865,169
8671937,69376053921,760.0,84.3,0.87,169
8672038,69376861918,807.0,84.3,0.857,169
8672141,69377685920,824.0,84.3,0.81,169
8672243,69378501920,816.0,84.3,0.766,169
8672281,69378805919,303.0,84.3,0.477,185
8672386,69379645917,839.0,84.3,0.48,185
8672454,69380189920,544.0,84.3,0.875,169
8672570,69381117920,928.0,84.3,0.867,169
8672680,69381997920,880.0,84.3,0.816,169
8672721,69382325917,327.0,84.3,0.478,185
8672841,69383285917,960.0,84.3,0.652,169
8672946,69384125920,840.0,84.3,0.707,169
8672978,69384381920,256.0,84.3,0.808,173
8673103,69385381920,1000.0,84.3,0.524,169
8673203,69386181921,800.0,84.3,0.71,169
8673249,69386549921,368.0,84.3,0.863,169
8673347,69387333918,783.0,84.3,0.673,169
8673444,69388109920,776.0,84.3,0.899,169
8673547,69388933920,824.0,84.3,0.844,169
8673654,69389789920,856.0,84.3,0.796,169
8673692,69390093920,304.0,84.3,0.428,185
8673802,69390973918,879.0,84.3,0.622,169
8673891,69391685920,712.0,84.3,0.517,169
8673991,69392485921,800.0,84.3,0.496,185
8674051,69392965917,479.0,84.3,0.838,169
8674149,69393749920,784.0,84.3,0.852,169
8674244,69394509918,759.0,84.3,0.865,169
8674341,69395285918,776.0,84.3,0.864,169
8674436,69396045918,760.0,84.3,0.857,169
8674528,69396781920,736.0,84.3,0.854,169
8674619,69397509920,728.0,84.3,0.86,169
8674713,69398261917,751.0,84.3,0.839,169
8674810,69399037920,776.0,84.3,0.804,169
8674904,69399789921,752.0,84.3,0.785,169
8674998,69400541917,751.0,84.3,0.787,169
8675035,69400837920,296.0,84.3,0.484,189
8675134,69401629916,791.0,84.3,0.499,185
8675232,69402413920,784.0,84.3,0.476,185
8675317,69403093920,680.0,84.3,0.501,169
8675410,69403837920,744.0,84.3,0.554,169
8675531,69404805920,968.0,84.3,0.408,185
8675560,69405037920,232.0,84.3,0.795,173
8675651,69405765916,727.0,84.3,0.884,169
8675764,69406669918,904.0,84.3,0.537,169
8675856,69407405920,736.0,84.3,0.482,185
8675939,69408069918,663.0,84.3,0.489,185
8676000,69408557917,487.0,84.3,0.616,185
8676102,69409373920,816.0,84.3,0.845,169
8676207,69410213921,840.0,84.3,0.899,169
8676300,69410957920,743.0,84.3,0.852,169
8676391,69411685920,728.0,84.3,0.794,169
8676479,69412389920,704.0,84.3,0.782,169
8676567,69413093917,703.0,84.3,0.896,169
8676645,69413717919,624.0,84.3,0.821,169
8676729,69414389920,672.0,84.3,0.839,169
8676815,69415077917,687.0,84.3,0.862,169
8676895,69415717920,640.0,84.3,0.839,169
8677013,69416661920,944.0,84.3,0.486,185
8677100,69417357920,696.0,84.3,0.499,185
8677187,69418053916,695.0,84.3,0.479,185
8677330,69419197918,1144.0,84.3,0.779,185
8677369,69419509920,312.0,84.3,0.541,169
8677461,69420245920,736.0,84.3,0.466,185
8677550,69420957918,711.0,84.3,0.501,169
8677607,69421413920,456.0,84.3,0.823,169
8677693,69422101921,688.0,84.3,0.786,169
8677819,69423109918,1007.0,84.3,0.434,185
8677912,69423853920,744.0,84.3,0.508,169
8677963,69424261921,408.0,84.3,0.844,169
8678060,69425037916,775.0,84.3,0.846,169
8678157,69425813920,776.0,84.3,0.873,169
8678248,69426541920,728.0,84.3,0.854,169
8678340,69427277918,735.0,84.3,0.877,169
8678434,69428029916,751.0,84.3,0.878,169
8678530,69428797921,768.0,84.3,0.836,169
8678620,69429517916,719.0,84.3,0.858,169
8678710,69430237920,720.0,84.3,0.87,169
8678800,69430957920,720.0,84.3,0.871,169
8678894,69431709921,752.0,84.3,0.851,169
8678990,69432477920,767.0,84.3,0.804,169
8679090,69433277921,800.0,84.3,0.79,169
8679122,69433533920,255.0,84.3,0.505,173
8679220,69434317921,784.0,84.3,0.447,185
8679315,69435077920,759.0,84.3,0.524,169
8679413,69435861920,784.0,84.3,0.491,185
8679473,69436341917,479.0,84.3,0.818,169
8679565,69437077921,736.0,84.3,0.834,169
8679660,69437837920,759.0,84.3,0.862,169
8679753,69438581920,744.0,84.3,0.86,169
8679848,69439341919,759.0,84.3,0.851,169
8679937,69440053920,712.0,84.3,0.866,169
8680030,69440797917,743.0,84.3,0.897,169
8680123,69441541918,744.0,84.3,0.887,169
8680217,69442293918,752.0,84.3,0.871,169
8680307,69443013920,720.0,84.3,0.87,169
8680404,69443789920,776.0,84.3,0.857,169
8680506,69444605920,816.0,84.3,0.81,169
8680606,69445405920,800.0,84.3,0.774,169
8680644,69445709917,303.0,84.3,0.457,185
8680740,69446477920,768.0,84.3,0.471,185
8680839,69447269920,792.0,84.3,0.484,185
8680899,69447749920,480.0,84.3,0.842,169
8680998,69448541920,792.0,84.3,0.905,169
8681092,69449293920,752.0,84.3,0.742,169
8681191,69450085921,792.0,84.3,0.783,169
8681291,69450885920,799.0,84.3,0.775,169
8681391,69451685916,799.0,84.3,0.675,169
8681487,69452453920,768.0,84.3,0.719,169
8681584,69453229918,775.0,84.3,0.799,169
8681623,69453541916,311.0,84.3,0.49,185
8681721,69454325921,784.0,84.3,0.49,185
8681812,69455053920,727.0,84.3,0.482,185
8681906,69455805920,752.0,84.3,0.468,185
8682016,69456685917,879.0,84.3,0.434,185
8682097,69457333920,648.0,84.3,0.467,185
8682145,69457717917,383.0,84.3,0.836,169
8682233,69458421921,704.0,84.3,0.826,169
8682321,69459125920,703.0,84.3,0.818,169
8682417,69459893920,768.0,84.3,0.86,169
8682513,69460661920,768.0,84.3,0.855,169
8682607,69461413916,751.0,84.3,0.86,169
8682697,69462133920,720.0,84.3,0.865,169
8682788,69462861920,728.0,84.3,0.881,169
8682880,69463597920,736.0,84.3,0.908,169
8682972,69464333920,736.0,84.3,0.834,169
8683058,69465021917,687.0,84.3,0.719,169
8683145,69465717920,696.0,84.3,0.876,169
8683220,69466317920,600.0,84.3,0.8,169
8683343,69467301920,984.0,84.3,0.735,169
8683418,69467901918,599.0,84.3,0.596,169
8683514,69468669916,767.0,84.3,0.509,169
8683634,69469629921,960.0,84.3,0.531,169
8683721,69470325920,695.0,84.3,0.795,169
8683807,69471013918,687.0,84.3,0.78,169
8683892,69471693917,679.0,84.3,0.803,169
8683976,69472365917,672.0,84.3,0.794,169
8684058,69473021920,656.0,84.3,0.696,169
8684145,69473717920,696.0,84.3,0.814,169
8684231,69474405920,688.0,84.3,0.841,169
8684316,69475085916,679.0,84.3,0.912,169
8684402,69475773920,688.0,84.3,0.837,169
8684482,69476413918,639.0,84.3,0.593,169
8684567,69477093918,680.0,84.3,0.843,169
8684643,69477701920,608.0,84.3,0.847,169
8684754,69478589920,888.0,84.3,0.607,169
8684866,69479485918,895.0,84.3,0.766,169
8684942,69480093920,608.0,84.3,0.816,169
8685014,69480669921,576.0,84.3,0.83,169
8685089,69481269920,599.0,84.3,0.829,169
8685207,69482213920,944.0,84.3,0.549,169
8685328,69483181921,968.0,84.3,0.579,169
8685368,69483501921,320.0,84.3,0.602,169
8685502,69484573918,1071.0,84.3,0.757,169
8685582,69485213920,640.0,84.3,0.774,169
8685664,69485869920,656.0,84.3,0.831,169
8685748,69486541917,671.0,84.3,0.873,169
8685840,69487277920,736.0,84.3,0.799,169
8685930,69487997917,719.0,84.3,0.825,169
8686013,69488661917,664.0,84.3,0.729,169
8686101,69489365920,704.0,84.3,0.847,169
8686193,69490101917,735.0,84.3,0.826,169
8686281,69490805921,704.0,84.3,0.817,169
8686369,69491509917,703.0,84.3,0.79,169
8686452,69492173920,664.0,84.3,0.87,169
8686535,69492837918,663.0,84.3,0.865,169
8686627,69493573918,736.0,84.3,0.668,169
8686700,69494157920,584.0,84.3,0.882,169
8686781,69494805920,648.0,84.3,0.871,169
8686862,69495453916,647.0,84.3,0.788,169
8686976,69496365917,912.0,84.3,0.6,169
8687098,69497341920,976.0,84.3,0.776,169
8687182,69498013918,671.0,84.3,0.746,169
8687258,69498621920,608.0,84.3,0.778,169
8687338,69499261920,640.0,84.3,0.86,169
8687424,69499949920,688.0,84.3,0.892,169
8687509,69500629918,679.0,84.3,0.89,169
8687591,69501285916,655.0,84.3,0.842,169
8687677,69501973917,688.0,84.3,0.878,169
8687764,69502669920,696.0,84.3,0.83,169
8687848,69503341918,671.0,84.3,0.854,169
8687933,69504021920,680.0,84.3,0.799,169
8688062,69505053921,1032.0,84.3,0.86,169
8688137,69505653921,600.0,84.3,0.48,185
8688221,69506325917,671.0,84.3,0.517,169
8688341,69507285920,960.0,84.3,0.818,169
8688413,69507861918,575.0,84.3,0.712,169
8688482,69508413920,552.0,84.3,0.78,169
8688557,69509013920,600.0,84.3,0.864,169
8688696,69510125920,1112.0,84.3,0.846,169
8688766,69510685916,559.0,84.3,0.738,169
8688841,69511285920,600.0,84.3,0.849,169
8688916,69511885920,600.0,84.3,0.802,169
8689030,69512797918,911.0,84.3,0.468,185
8689148,69513741920,944.0,84.3,0.76,169
8689231,69514405918,663.0,84.3,0.802,169
8689313,69515061920,656.0,84.3,0.791,169
8689393,69515701919,639.0,84.3,0.8,169
8689479,69516389916,687.0,84.3,0.866,169
8689564,69517069921,680.0,84.3,0.873,169
8689651,69517765921,696.0,84.3,0.878,169
8689735,69518437921,672.0,84.3,0.861,169
8689821,69519125917,687.0,84.3,0.905,169
8689908,69519821920,696.0,84.3,0.878,169
8689995,69520517920,696.0,84.3,0.743,169
8690088,69521261920,744.0,84.3,0.891,169
8690163,69521861917,599.0,84.3,0.755,169
8690247,69522533918,672.0,84.3,0.786,169
8690336,69523245920,712.0,84.3,0.865,169
8690423,69523941919,695.0,84.3,0.821,169
8690513,69524661920,720.0,84.3,0.835,169
8690608,69525421920,760.0,84.3,0.83,169
8690697,69526133920,712.0,84.3,0.815,169
8690800,69526957920,824.0,84.3,0.867,169
8690894,69527709920,752.0,84.3,0.904,169
8690988,69528461918,751.0,84.3,0.892,169
8691076,69529165920,704.0,84.3,0.803,169
8691166,69529885920,720.0,84.3,0.812,169
8691259,69530629920,744.0,84.3,0.82,169
8691356,69531405920,776.0,84.3,0.771,169
8691448,69532141919,735.0,84.3,0.799,169
8691543,69532901921,760.0,84.3,0.832,169
8691635,69533637920,735.0,84.3,0.759,169
8691726,69534365920,728.0,84.3,0.751,169
8691823,69535141920,776.0,84.3,0.762,169
8691866,69535485916,343.0,84.3,0.504,169
8691963,69536261920,776.0,84.3,0.493,185
8692028,69536781920,520.0,84.3,0.828,169
8692127,69537573921,792.0,84.3,0.867,169
8692234,69538429920,855.0,84.3,0.886,169
8692341,69539285920,856.0,84.3,0.798,169
8692442,69540093920,808.0,84.3,0.781,169
8692486,69540445917,351.0,84.3,0.466,185
8692580,69541197921,752.0,84.3,0.504,169
8692669,69541909920,711.0,84.3,0.507,169
8692762,69542653921,744.0,84.3,0.486,185
8692871,69543525920,871.0,84.3,0.449,185
8692937,69544053920,528.0,84.3,0.532,169
8692998,69544541917,487.0,84.3,0.58,185
8693092,69545293916,751.0,84.3,0.826,169
8693181,69546005920,712.0,84.3,0.824,169
8693279,69546789916,783.0,84.3,0.841,169
8693371,69547525920,736.0,84.3,0.854,169
8693467,69548293920,768.0,84.3,0.852,169
8693554,69548989919,695.0,84.3,0.851,169
8693648,69549741920,752.0,84.3,0.876,169
8693742,69550493920,752.0,84.3,0.874,169
8693834,69551229920,736.0,84.3,0.866,169
8693919,69551909921,680.0,84.3,0.816,169
8694009,69552629920,719.0,84.3,0.894,169
8694095,69553317921,688.0,84.3,0.873,169
8694181,69554005920,687.0,84.3,0.886,169
8694265,69554677920,672.0,84.3,0.847,169
8694345,69555317920,640.0,84.3,0.83,169
8694427,69555973921,656.0,84.3,0.84,169
8694547,69556933917,959.0,84.3,0.559,169
8694605,69557397918,464.0,84.3,0.854,169
8694700,69558157920,760.0,84.3,0.847,169
8694809,69559029921,872.0,84.3,0.868,169
8694918,69559901920,871.0,84.3,0.82,169
8695025,69560757917,855.0,84.3,0.787,169
8695058,69561021920,264.0,84.3,0.543,173
8695159,69561829920,808.0,84.3,0.498,185
8695262,69562653916,823.0,84.3,0.468,185
8695318,69563101920,448.0,84.3,0.797,169
8695411,69563845920,744.0,84.3,0.838,169
8695495,69564517920,672.0,84.3,0.818,169
8695621,69565525920,1008.0,84.3,0.481,185
8695690,69566077920,552.0,84.3,0.52,169
8695779,69566789921,712.0,84.3,0.511,169
8695870,69567517920,727.0,84.3,0.49,185
8695962,69568253917,735.0,84.3,0.478,185
8696055,69568997920,744.0,84.3,0.548,169
8696120,69569517916,519.0,84.3,0.84,169
8696216,69570285920,768.0,84.3,0.857,169
8696308,69571021920,736.0,84.3,0.826,169
8696395,69571717921,696.0,84.3,0.836,169
8696483,69572421920,703.0,84.3,0.869,169
8696572,69573133920,712.0,84.3,0.878,169
8696665,69573877917,743.0,84.3,0.867,169
8696756,69574605920,728.0,84.3,0.859,169
8696851,69575365920,760.0,84.3,0.871,169
8696942,69576093919,727.0,84.3,0.863,169
8697034,69576829917,735.0,84.3,0.895,169
8697127,69577573916,743.0,84.3,0.853,169
8697217,69578293921,720.0,84.3,0.849,169
8697305,69578997921,704.0,84.3,0.847,169
8697393,69579701920,703.0,84.3,0.873,169
8697484,69580429920,728.0,84.3,0.86,169
8697572,69581133916,703.0,84.3,0.868,169
8697661,69581845918,712.0,84.3,0.87,169
8697747,69582533920,688.0,84.3,0.906,169
8697839,69583269920,736.0,84.3,0.858,169
8697931,69584005919,735.0,84.3,0.851,169
8698019,69584709920,704.0,84.3,0.849,169
8698108,69585421920,712.0,84.3,0.882,169
8698202,69586173918,751.0,84.3,0.855,169
8698295,69586917920,744.0,84.3,0.842,169
8698383,69587621916,703.0,84.3,0.829,169
8698469,69588309920,688.0,84.3,0.835,169
8698557,69589013920,704.0,84.3,0.856,169
8698635,69589637920,624.0,84.3,0.832,169
8698715,69590277920,640.0,84.3,0.874,169
8698794,69590909921,632.0,84.3,0.854,169
8698914,69591869916,959.0,84.3,0.474,185
8699019,69592709920,840.0,84.3,0.723,169
8699101,69593365920,656.0,84.3,0.835,169
8699199,69594149920,784.0,84.3,0.83,169
8699251,69594565916,415.0,84.3,0.5,169
8699353,69595381916,816.0,84.3,0.464,185
8699492,69596493920,1112.0,84.3,0.293,185
8699621,69597525918,1031.0,84.3,0.475,185
8699686,69598045920,520.0,84.3,0.824,169
8699786,69598845916,799.0,84.3,0.862,169
8699881,69599605920,760.0,84.3,0.875,169
8699974,69600349918,743.0,84.3,0.857,169
8700071,69601125920,776.0,84.3,0.857,169
8700170,69601917920,792.0,84.3,0.835,169
8700268,69602701920,784.0,84.3,0.821,169
8700305,69602997917,295.0,84.3,0.485,189
8700404,69603789917,792.0,84.3,0.537,169
8700502,69604573917,784.0,84.3,0.491,185
8700601,69605365920,792.0,84.3,0.493,185
8700667,69605893921,528.0,84.3,0.858,169
8700773,69606741920,847.0,84.3,0.882,169
8700872,69607533916,791.0,84.3,0.844,169
8700973,69608341917,808.0,84.3,0.816,169
8701073,69609141920,800.0,84.3,0.795,169
8701109,69609429916,287.0,84.3,0.498,189
8701207,69610213920,784.0,84.3,0.514,169
8701302,69610973920,760.0,84.3,0.497,185
8701400,69611757921,784.0,84.3,0.514,169
8701466,69612285920,527.0,84.3,0.851,169
8701565,69613077920,792.0,84.3,0.88,169
8701667,69613893920,816.0,84.3,0.862,169
8701765,69614677916,783.0,84.3,0.835,169
8701859,69615429921,752.0,84.3,0.81,169
8701957,69616213916,783.0,84.3,0.815,169
8702051,69616965920,752.0,84.3,0.806,169
8702142,69617693917,727.0,84.3,0.774,169
8702227,69618373920,680.0,84.3,0.824,169
8702313,69619061920,688.0,84.3,0.795,169
8702404,69619789918,727.0,84.3,0.811,169
8702493,69620501918,712.0,84.3,0.792,169
8702577,69621173920,672.0,84.3,0.782,169
8702661,69621845917,671.0,84.3,0.788,169
8702742,69622493920,648.0,84.3,0.807,169
8702820,69623117920,624.0,84.3,0.851,169
8702900,69623757920,640.0,84.3,0.845,169
8702978,69624381921,624.0,84.3,0.722,169
8703104,69625389921,1008.0,84.3,0.534,169
8703169,69625909917,519.0,84.3,0.549,169
8703281,69626805917,896.0,84.3,0.764,169
8703357,69627413917,608.0,84.3,0.794,169
8703430,69627997920,584.0,84.3,0.771,169
8703508,69628621920,624.0,84.3,0.871,169
8703659,69629829920,1208.0,84.3,0.79,169
8703741,69630485921,656.0,84.3,0.803,169
8703827,69631173917,687.0,84.3,0.797,169
8704172,69633933920,0.0,0.0,0.826,75
8704256,69634605919,671.0,89.3,0.882,73
8704340,69635277917,671.0,89.3,0.883,73
8704427,69635973920,696.0,89.3,0.873,73
8704512,69636653917,679.0,88.8,0.855,73
8704595,69637317920,664.0,89.3,0.852,73
8704678,69637981920,664.0,89.3,0.865,73
8704767,69638693920,712.0,89.3,0.906,73
8704852,69639373920,680.0,88.8,0.862,73
8704934,69640029920,656.0,89.3,0.862,73
8705015,69640677920,648.0,89.3,0.868,73
8705100,69641357920,680.0,88.2,0.912,73
8705190,69642077920,720.0,88.2,0.808,73
8705275,69642757921,680.0,88.2,0.844,73
8705363,69643461920,703.0,88.2,0.83,73
8705454,69644189920,728.0,88.2,0.862,73
8705540,69644877917,687.0,88.2,0.826,73
8705628,69645581920,704.0,87.2,0.907,73
8705716,69646285919,703.0,85.2,0.863,73
8705801,69646965920,680.0,85.2,0.852,73
8705884,69647629920,664.0,85.2,0.836,73
8705968,69648301917,671.0,87.2,0.748,73
8706050,69648957916,655.0,87.2,0.857,73
8706135,69649637920,680.0,88.2,0.88,73
8706215,69650277920,640.0,88.2,0.845,73
8706297,69650933921,656.0,89.3,0.88,73
8706382,69651613916,679.0,89.3,0.853,73
8706464,69652269920,656.0,90.4,0.891,73
8706548,69652941920,672.0,90.4,0.828,73
8706631,69653605920,664.0,90.4,0.865,73
8706713,69654261920,656.0,91.5,0.827,73
8706798,69654941920,680.0,90.4,0.834,73
8706888,69655661920,720.0,90.4,0.905,73
8706977,69656373918,711.0,89.3,0.867,73
8707062,69657053920,680.0,88.2,0.848,73
8707146,69657725920,672.0,89.3,0.861,73
8707232,69658413918,687.0,88.2,0.798,73
8707313,69659061920,648.0,88.2,0.851,73
8707391,69659685920,624.0,88.2,0.865,73
8707468,69660301917,615.0,88.2,0.863,73
8707545,69660917920,616.0,89.3,0.864,73
8707629,69661589917,671.0,89.3,0.884,73
8707711,69662245918,656.0,91.5,0.849,73
8707799,69662949920,704.0,91.5,0.874,73
8707885,69663637920,688.0,91.5,0.882,73
8707974,69664349920,712.0,91.5,0.877,73
8708063,69665061921,712.0,89.3,0.858,73
8708155,69665797920,735.0,87.2,0.879,73
8708236,69666445920,648.0,87.2,0.804,73
8708323,69667141920,696.0,86.2,0.763,73
8708410,69667837916,695.0,86.2,0.82,73
8708490,69668477920,640.0,86.2,0.874,73
8708573,69669141920,664.0,86.2,0.895,73
8708656,69669805920,664.0,86.2,0.878,73
8708735,69670437920,632.0,90.4,0.81,73
8708816,69671085920,648.0,90.4,0.85,73
8708893,69671701920,616.0,92.6,0.826,73
8708971,69672325920,624.0,92.6,0.833,73
8709048,69672941917,615.0,93.8,0.801,73
8709127,69673573920,632.0,94.9,0.791,73
8709206,69674205920,632.0,94.9,0.793,73
8709286,69674845920,640.0,94.9,0.78,73
8709363,69675461920,616.0,94.9,0.774,169
8709441,69676085921,624.0,94.9,0.781,169
8709552,69676973920,887.0,94.9,0.495,185
8709630,69677597916,623.0,94.9,0.546,169
8709703,69678181917,584.0,94.9,0.505,169
8709775,69678757917,576.0,94.9,0.529,169
8709880,69679597920,840.0,94.9,0.832,169
8709953,69680181920,584.0,94.9,0.83,73
8710032,69680813921,632.0,94.9,0.847,73
8710114,69681469917,655.0,94.9,0.887,73
8710203,69682181920,712.0,94.9,0.86,73
8710296,69682925918,743.0,93.8,0.817,73
8710388,69683661920,736.0,93.8,0.804,169
8710424,69683949917,287.0,93.8,0.51,173
8710512,69684653920,704.0,93.8,0.572,169
8710574,69685149916,495.0,93.8,0.854,169
8710666,69685885920,736.0,93.8,0.873,169
8710757,69686613917,727.0,93.8,0.856,169
8710848,69687341920,728.0,93.8,0.852,169
8710939,69688069920,728.0,93.3,0.788,73
8711035,69688837920,768.0,91.5,0.866,73
8711125,69689557920,720.0,90.0,0.806,73
8711215,69690277921,720.0,84.3,0.79,73
8711305,69690997921,720.0,83.3,0.844,73
8711396,69691725917,727.0,83.3,0.841,73
8711489,69692469920,744.0,83.3,0.83,73
8711578,69693181917,711.0,83.3,0.833,73
8711666,69693885917,704.0,83.3,0.852,73
8711754,69694589916,703.0,83.3,0.827,73
8711839,69695269918,680.0,83.3,0.84,73
8711925,69695957921,688.0,84.3,0.897,73
8712013,69696661920,703.0,85.2,0.862,73
8712101,69697365917,703.0,85.2,0.866,73
8712185,69698037917,672.0,85.2,0.855,73
8712270,69698717916,679.0,85.2,0.887,73
8712358,69699421920,704.0,85.2,0.915,73
8712445,69700117920,696.0,86.2,0.868,73
8712528,69700781920,664.0,87.2,0.835,73
8712610,69701437917,655.0,87.2,0.861,73
8712692,69702093917,656.0,88.2,0.869,73
8712771,69702725921,632.0,89.3,0.818,73
8712848,69703341918,615.0,90.4,0.838,73
8712929,69703989919,648.0,91.5,0.831,73
8713009,69704629917,639.0,91.5,0.853,73
8713097,69705333917,704.0,91.5,0.871,73
8713190,69706077921,744.0,91.5,0.886,73
8713283,69706821920,743.0,91.5,0.869,73
8713383,69707621917,799.0,91.5,0.83,73
8713485,69708437920,816.0,91.5,0.787,169
8713518,69708701918,263.0,91.5,0.504,173
8713617,69709493921,792.0,91.5,0.534,169
8713683,69710021920,527.0,91.5,0.821,169
8713781,69710805920,784.0,91.5,0.872,169
8713874,69711549921,744.0,91.5,0.86,169
8713961,69712245917,695.0,91.5,0.861,169
8714049,69712949917,704.0,90.1,0.903,73
8714138,69713661921,712.0,85.2,0.872,73
8714230,69714397919,735.0,84.3,0.863,73
8714319,69715109916,711.0,84.3,0.721,73
8714410,69715837920,728.0,82.4,0.839,73
8714502,69716573916,735.0,81.5,0.869,73
8714593,69717301920,728.0,82.4,0.884,73
8714683,69718021920,720.0,82.4,0.87,73
8714769,69718709920,688.0,83.3,0.878,73
8714859,69719429920,720.0,83.3,0.883,73
8714947,69720133918,703.0,83.3,0.852,73
8715039,69720869920,736.0,83.3,0.889,73
8715130,69721597920,728.0,82.4,0.876,73
8715222,69722333921,736.0,82.4,0.871,73
8715306,69723005920,671.0,83.3,0.816,73
8715389,69723669920,664.0,83.3,0.859,73
8715473,69724341920,672.0,85.2,0.825,73
8715553,69724981920,640.0,85.2,0.839,73
8715668,69725901918,919.0,85.2,0.564,169
8715748,69726541917,639.0,85.2,0.446,185
8715844,69727309920,768.0,85.2,0.623,169
8715951,69728165918,855.0,85.2,0.774,169
8716034,69728829920,664.0,85.2,0.832,169
8716116,69729485917,655.0,85.2,0.792,169
8716199,69730149920,664.0,85.2,0.829,73
8716286,69730845916,695.0,86.2,0.861,73
8716370,69731517920,672.0,89.3,0.876,73
8716454,69732189920,672.0,89.3,0.883,73
8716538,69732861920,672.0,89.3,0.879,73
8716619,69733509921,648.0,89.3,0.876,73
8716786,69734845920,680.0,89.3,0.886,73
8716873,69735541920,696.0,89.3,0.885,73
8716964,69736269917,727.0,89.3,0.853,73
8717053,69736981916,711.0,89.3,0.884,73
8717143,69737701920,720.0,88.2,0.833,73
8717224,69738349917,647.0,88.2,0.829,73
8717304,69738989918,640.0,88.2,0.765,73
8717384,69739629920,640.0,88.2,0.887,73
8717464,69740269917,639.0,88.2,0.874,73
8717543,69740901917,632.0,92.6,0.878,73
8717624,69741549917,648.0,92.6,0.88,73
8717709,69742229921,680.0,92.6,0.888,73
8717795,69742917920,687.0,92.6,0.874,73
8717879,69743589920,672.0,92.6,0.863,73
8717968,69744301920,712.0,92.6,0.859,73
8718061,69745045917,743.0,89.3,0.848,73
8718154,69745789920,744.0,88.2,0.817,73
8718247,69746533917,743.0,87.2,0.787,73
8718339,69747269920,736.0,87.2,0.79,169
8718427,69747973920,704.0,87.2,0.776,169
8718457,69748213918,239.0,87.2,0.5,173
8718593,69749301917,1087.0,87.2,0.811,169
8718671,69749925916,623.0,87.2,0.853,169
8718747,69750533920,608.0,87.2,0.867,169
8718829,69751189920,656.0,87.2,0.888,169
8718914,69751869921,680.0,87.2,0.883,73
8719001,69752565920,695.0,86.2,0.878,73
8719090,69753277918,711.0,84.3,0.87,73
8719183,69754021918,744.0,84.3,0.859,73
8719273,69754741920,720.0,83.3,0.851,73
8719364,69755469917,727.0,82.4,0.871,73
8719455,69756197920,728.0,82.4,0.861,73
8719545,69756917921,720.0,83.3,0.868,73
8719635,69757637920,719.0,83.3,0.865,73
8719721,69758325920,688.0,83.3,0.857,73
8719809,69759029921,704.0,83.3,0.882,73
8719895,69759717920,687.0,83.3,0.863,73
8719980,69760397916,679.0,83.3,0.854,73
8720059,69761029920,632.0,85.2,0.817,73
8720169,69761909920,880.0,85.2,0.514,169
8720278,69762781920,872.0,85.2,0.804,169
8720355,69763397921,616.0,85.2,0.845,169
8720437,69764053921,656.0,85.2,0.872,169
8720519,69764709919,655.0,85.2,0.86,169
8720604,69765389920,680.0,85.2,0.856,169
8720690,69766077920,688.0,85.2,0.849,73
8720776,69766765920,688.0,87.2,0.844,73
8720857,69767413918,647.0,87.2,0.845,73
8720945,69768117920,704.0,87.2,0.864,73
8721032,69768813917,695.0,87.2,0.864,73
8721121,69769525920,712.0,87.2,0.887,73
8721201,69770165920,640.0,87.2,0.862,73
8721283,69770821916,655.0,87.2,0.879,73
8721364,69771469920,648.0,87.2,0.87,73
8721444,69772109917,639.0,91.5,0.87,73
8721526,69772765920,656.0,91.5,0.858,73
8721606,69773405920,640.0,91.5,0.831,73
8721683,69774021920,616.0,92.6,0.81,73
8721766,69774685920,664.0,92.6,0.818,73
8721852,69775373920,688.0,92.6,0.845,73
8721935,69776037921,664.0,91.5,0.85,73
8722026,69776765916,727.0,91.5,0.871,73
8722112,69777453916,688.0,90.4,0.882,73
8722203,69778181921,728.0,90.4,0.864,73
8722292,69778893921,712.0,87.2,0.856,73
8722386,69779645917,751.0,87.2,0.827,73
8722475,69780357917,712.0,84.3,0.828,73
8722568,69781101920,744.0,84.3,0.836,73
8722662,69781853920,752.0,82.4,0.807,73
8722757,69782613917,759.0,82.4,0.809,73
8722848,69783341917,728.0,82.4,0.799,73
8722937,69784053919,712.0,82.4,0.818,73
8723028,69784781917,727.0,82.4,0.829,73
8723119,69785509918,728.0,82.4,0.778,73
8723209,69786229920,720.0,82.4,0.796,73
8723299,69786949920,720.0,82.4,0.667,73
8723386,69787645919,695.0,82.4,0.877,73
8723475,69788357920,712.0,83.3,0.881,73
8723566,69789085917,727.0,83.3,0.89,73
8723655,69789797916,711.0,83.3,0.853,73
8723750,69790557921,760.0,83.3,0.835,73
8723843,69791301920,743.0,83.3,0.853,73
8723930,69791997916,695.0,83.3,0.846,73
8724018,69792701917,704.0,84.3,0.894,73
8724106,69793405916,703.0,84.3,0.876,73
8724192,69794093920,688.0,84.3,0.878,73
8724282,69794813917,719.0,84.3,0.874,73
8724369,69795509920,696.0,85.2,0.854,73
8724462,69796253916,743.0,85.2,0.771,73
8724544,69796909920,656.0,85.2,0.861,73
8724631,69797605920,696.0,86.2,0.891,73
8724719,69798309918,703.0,85.2,0.885,73
8724803,69798981920,672.0,86.2,0.876,73
8724890,69799677917,695.0,86.2,0.917,73
8724979,69800389920,712.0,86.2,0.867,73
8725065,69801077921,688.0,86.2,0.845,73
8725153,69801781918,703.0,86.2,0.851,73
8725240,69802477920,696.0,86.2,0.902,73
8725326,69803165920,688.0,86.2,0.83,73
8725417,69803893920,728.0,86.2,0.863,73
8725507,69804613917,719.0,86.2,0.861,73
8725593,69805301920,688.0,86.2,0.875,73
8725679,69805989918,687.0,86.2,0.864,73
8725764,69806669919,680.0,87.2,0.832,73
8725847,69807333921,664.0,87.2,0.871,73
8725935,69808037917,703.0,87.2,0.864,73
8726024,69808749921,712.0,87.2,0.882,73
8726107,69809413920,663.0,87.2,0.875,73
8726192,69810093920,680.0,87.2,0.909,73
8726278,69810781916,687.0,87.2,0.863,73
8726371,69811525920,744.0,87.2,0.868,73
8726463,69812261920,736.0,87.2,0.828,73
8726552,69812973921,712.0,85.2,0.837,73
8726645,69813717918,743.0,84.3,0.844,73
8726740,69814477918,760.0,84.3,0.837,73
8726834,69815229917,751.0,81.5,0.836,73
8726926,69815965920,736.0,81.5,0.79,73
8727008,69816621917,655.0,81.5,0.872,73
8727092,69817293918,672.0,81.5,0.887,73
8727177,69817973919,680.0,81.5,0.899,73
8727266,69818685920,712.0,84.3,0.866,73
8727360,69819437920,752.0,81.5,0.878,73
8727454,69820189918,751.0,81.5,0.857,73
8727542,69820893917,703.0,84.3,0.837,73
8727633,69821621919,728.0,84.3,0.881,73
8727724,69822349920,728.0,84.3,0.785,73
8727812,69823053918,703.0,84.3,0.867,73
8727899,69823749918,696.0,84.3,0.831,73
8727983,69824421919,672.0,84.3,0.889,169
8728065,69825077917,655.0,84.3,0.878,169
8728150,69825757917,680.0,84.3,0.879,169
8728238,69826461918,704.0,84.3,0.858,169
8728329,69827189921,728.0,84.3,0.846,169
8728417,69827893920,703.0,84.3,0.841,169
8728506,69828605920,712.0,84.3,0.844,73
8728592,69829293920,688.0,85.2,0.873,73
8728678,69829981920,688.0,85.2,0.872,73
8728766,69830685920,704.0,85.2,0.862,73
8728851,69831365918,679.0,86.2,0.86,73
8728932,69832013920,648.0,86.5,0.875,73
8729013,69832661917,647.0,87.2,0.853,73
8729093,69833301917,640.0,87.2,0.847,73
8729202,69834173920,872.0,87.2,0.462,185
8729289,69834869920,696.0,87.2,0.53,169
8729358,69835421920,552.0,87.2,0.562,169
8729482,69836413917,991.0,87.2,0.756,169
8729567,69837093916,679.0,87.2,0.789,169
8729652,69837773918,680.0,87.2,0.805,169
8729733,69838421919,648.0,88.2,0.789,73
8729819,69839109917,687.0,88.2,0.868,73
8729906,69839805920,696.0,88.2,0.87,73
8729992,69840493920,688.0,88.2,0.869,73
8730076,69841165920,672.0,89.3,0.859,73
8730159,69841829920,664.0,90.4,0.891,73
8730243,69842501920,672.0,89.3,0.891,73
8730330,69843197916,695.0,89.3,0.814,73
8730419,69843909920,712.0,87.2,0.89,73
8730508,69844621920,712.0,87.2,0.836,73
8730594,69845309916,687.0,87.2,0.868,73
8730677,69845973917,664.0,87.2,0.859,73
8730763,69846661916,687.0,87.2,0.854,73
8730849,69847349920,688.0,87.2,0.839,73
8730933,69848021920,672.0,87.2,0.849,73
8731018,69848701920,680.0,87.2,0.856,73
8731104,69849389920,688.0,87.2,0.857,73
8731193,69850101920,712.0,87.2,0.881,73
8731280,69850797917,695.0,87.2,0.877,73
8731370,69851517917,720.0,87.2,0.887,73
8731463,69852261920,744.0,87.2,0.89,73
8731551,69852965920,704.0,86.2,0.758,73
8731637,69853653919,687.0,86.2,0.883,73
8731725,69854357920,704.0,85.2,0.861,73
8731809,69855029917,671.0,85.2,0.867,73
8731892,69855693920,664.0,85.2,0.856,73
8731974,69856349921,656.0,86.2,0.89,73
8732060,69857037920,687.0,87.2,0.879,73
8732145,69857717917,679.0,87.2,0.747,73
8732225,69858357920,640.0,88.2,0.872,73
8732309,69859029920,672.0,89.3,0.886,73
8732391,69859685920,656.0,89.3,0.892,73
8732475,69860357921,672.0,89.3,0.843,73
8732561,69861045920,687.0,89.3,0.885,73
8732651,69861765917,719.0,89.3,0.848,73
8732740,69862477916,711.0,88.2,0.85,73
8732830,69863197917,720.0,88.2,0.854,73
8732919,69863909916,711.0,87.2,0.864,73
8733003,69864581917,672.0,87.2,0.86,73
8733087,69865253920,672.0,87.2,0.902,73
8733174,69865949916,695.0,86.2,0.845,73
8733260,69866637920,688.0,86.2,0.892,73
8733346,69867325917,687.0,86.2,0.864,73
8733429,69867989920,664.0,87.2,0.855,73
8733515,69868677918,687.0,87.2,0.881,73
8733603,69869381920,704.0,87.2,0.855,73
8733690,69870077921,696.0,87.2,0.914,73
8733776,69870765917,687.0,87.2,0.879,73
8733859,69871429920,664.0,87.2,0.865,73
8733945,69872117920,688.0,87.2,0.88,73
8734036,69872845920,728.0,87.2,0.881,73
8734125,69873557920,712.0,87.2,0.806,73
8734215,69874277917,719.0,86.2,0.847,73
8734302,69874973918,696.0,86.2,0.874,73
8734392,69875693920,720.0,86.2,0.869,73
8734480,69876397921,704.0,85.2,0.846,73
8734566,69877085920,687.0,85.2,0.874,73
8734655,69877797920,712.0,84.3,0.838,73
8734742,69878493920,696.0,84.3,0.889,73
8734824,69879149920,656.0,85.2,0.844,73
8734906,69879805917,655.0,86.2,0.854,73
8734988,69880461920,656.0,86.2,0.877,73
8735066,69881085920,624.0,87.2,0.831,73
8735180,69881997920,912.0,87.2,0.477,185
8735251,69882565920,568.0,87.2,0.486,185
8735352,69883373920,808.0,87.2,0.515,169
8735411,69883845920,472.0,87.2,0.51,169
8735508,69884621921,776.0,87.2,0.489,185
8735633,69885621920,999.0,87.2,0.791,169
8735670,69885917920,296.0,87.2,0.501,173
8735807,69887013921,1096.0,87.2,0.813,185
8735856,69887405917,391.0,87.2,0.53,169
8735934,69888029920,624.0,87.2,0.537,169
8736020,69888717921,688.0,87.2,0.481,185
8736074,69889149920,431.0,87.2,0.83,169
8736159,69889829920,680.0,87.2,0.726,169
8736244,69890509918,679.0,87.2,0.845,169
8736360,69891437917,927.0,87.2,0.464,185
8736451,69892165920,728.0,87.2,0.542,169
8736527,69892773917,607.0,87.2,0.464,185
8736607,69893413920,640.0,87.2,0.527,169
8736683,69894021920,608.0,87.2,0.516,169
8736800,69894957920,936.0,87.2,0.757,169
8736877,69895573920,616.0,87.2,0.811,169
8736961,69896245916,671.0,87.2,0.782,169
8737043,69896901920,656.0,87.2,0.846,169
8737123,69897541920,640.0,87.2,0.79,169
8737205,69898197920,656.0,87.2,0.86,169
8737286,69898845918,647.0,87.2,0.877,169
8737370,69899517918,672.0,87.2,0.825,169
8737450,69900157917,639.0,87.2,0.855,169
8737535,69900837920,680.0,87.2,0.894,169
8737619,69901509920,672.0,87.2,0.834,169
8737705,69902197920,688.0,87.2,0.808,169
8737789,69902869918,671.0,87.2,0.832,169
8737874,69903549918,680.0,87.2,0.872,169
8737960,69904237918,688.0,87.2,0.739,169
8738046,69904925920,688.0,87.2,0.85,169
8738132,69905613920,688.0,87.2,0.86,169
8738218,69906301918,687.0,87.2,0.874,169
8738304,69906989921,688.0,87.2,0.847,169
8738388,69907661920,671.0,87.2,0.818,169
8738473,69908341920,680.0,87.2,0.834,169
8738556,69909005918,663.0,87.2,0.865,169
8738641,69909685920,680.0,87.2,0.868,169
8738726,69910365918,679.0,87.2,0.8,169
8738809,69911029917,663.0,87.2,0.83,169
8738894,69911709917,680.0,87.2,0.841,169
8738981,69912405920,696.0,87.2,0.837,169
8739069,69913109917,703.0,87.2,0.826,169
8739157,69913813920,704.0,87.2,0.796,169
8739240,69914477918,663.0,87.2,0.795,169
8739322,69915133920,656.0,87.2,0.822,169
8739406,69915805920,672.0,87.2,0.826,169
8739491,69916485918,679.0,87.2,0.828,169
8739579,69917189920,704.0,87.2,0.806,169
8739663,69917861917,671.0,87.2,0.835,169
8739748,69918541921,680.0,87.2,0.786,169
8739835,69919237918,695.0,87.2,0.772,169
8739920,69919917920,680.0,87.2,0.743,169
8740004,69920589921,672.0,87.2,0.802,169
8740086,69921245920,655.0,87.2,0.821,169
8740170,69921917917,671.0,87.2,0.759,169
8740216,69922285920,368.0,87.2,0.525,169
8740343,69923301920,1016.0,87.2,0.788,169
8740402,69923773920,472.0,87.2,0.508,169
8740512,69924653918,879.0,87.2,0.822,169
8740561,69925045920,392.0,87.2,0.517,169
8740630,69925597917,551.0,87.2,0.481,185
8740718,69926301916,703.0,87.2,0.544,169
8740829,69927189916,888.0,87.2,0.457,185
8740907,69927813921,624.0,87.2,0.458,185
8740962,69928253921,440.0,87.2,0.835,169
8741048,69928941920,687.0,87.2,0.797,169
8741133,69929621920,680.0,87.2,0.833,169
8741216,69930285920,664.0,87.2,0.852,169
8741303,69930981918,695.0,87.2,0.871,169
8741387,69931653920,672.0,87.2,0.835,169
8741475,69932357920,704.0,87.2,0.905,169
8741554,69932989918,631.0,87.2,0.808,169
8741642,69933693921,704.0,87.2,0.792,169
8741725,69934357920,663.0,87.2,0.822,169
8741808,69935021920,664.0,87.2,0.886,169
8741894,69935709918,687.0,87.2,0.897,169
8741980,69936397921,688.0,87.2,0.876,169
8742063,69937061920,663.0,87.2,0.823,169
8742147,69937733920,672.0,87.2,0.855,169
8742233,69938421918,687.0,87.2,0.831,169
8742321,69939125917,703.0,87.2,0.881,169
8742407,69939813918,688.0,87.2,0.854,169
8742489,69940469920,656.0,87.2,0.897,169
8742575,69941157920,688.0,87.2,0.879,169
8742658,69941821921,664.0,87.2,0.881,169
8742739,69942469920,647.0,87.2,0.835,169
8742825,69943157921,688.0,87.2,0.703,169
8742908,69943821918,663.0,87.2,0.848,169
8742990,69944477917,655.0,87.2,0.77,169
8743068,69945101920,624.0,87.2,0.869,169
8743149,69945749920,648.0,87.2,0.834,169
8743266,69946685920,936.0,87.2,0.859,169
8743316,69947085920,400.0,87.2,0.829,169
8743430,69947997916,911.0,87.2,0.573,169
8743525,69948757921,760.0,87.2,0.723,169
8743603,69949381920,623.0,87.2,0.804,169
8743676,69949965917,583.0,87.2,0.874,169
8743754,69950589920,624.0,87.2,0.907,169
8743835,69951237917,647.0,87.2,0.687,169
8743925,69951957917,720.0,87.2,0.807,169
8744009,69952629920,672.0,87.2,0.828,169
8744096,69953325918,695.0,87.2,0.776,169
8744185,69954037920,712.0,87.2,0.896,169
8744269,69954709916,671.0,87.2,0.869,169
8744356,69955405920,696.0,87.2,0.751,169
8744448,69956141920,736.0,87.2,0.868,169
8744529,69956789920,648.0,87.2,0.882,169
8744613,69957461920,672.0,87.2,0.816,169
8744697,69958133920,672.0,87.2,0.829,169
8744782,69958813916,679.0,87.2,0.891,169
8744865,69959477918,664.0,87.2,0.858,169
8744948,69960141920,664.0,87.2,0.808,169
8745034,69960829921,688.0,87.2,0.866,169
8745121,69961525920,695.0,87.2,0.876,169
8745204,69962189920,664.0,87.2,0.853,169
8745294,69962909920,720.0,87.2,0.776,169
8745380,69963597917,687.0,87.2,0.839,169
8745468,69964301919,704.0,87.2,0.851,169
8745558,69965021920,720.0,87.2,0.758,169
8745647,69965733918,711.0,87.2,0.785,169
8745731,69966405918,672.0,87.2,0.769,169
8745767,69966693921,288.0,87.2,0.466,189
8745913,69967861916,1167.0,87.2,0.773,185
8745955,69968197920,336.0,87.2,0.493,185
8746042,69968893920,696.0,87.2,0.465,185
8746123,69969541918,647.0,87.2,0.51,169
8746182,69970013918,472.0,87.2,0.856,169
8746273,69970741920,728.0,87.2,0.873,169
8746362,69971453920,712.0,87.2,0.894,169
8746450,69972157920,704.0,87.2,0.853,169
8746540,69972877921,720.0,87.2,0.874,169
8746629,69973589917,711.0,87.2,0.865,169
8746719,69974309920,720.0,87.2,0.82,169
8746810,69975037920,728.0,87.2,0.845,169
8746900,69975757920,720.0,87.2,0.81,169
8746987,69976453918,695.0,87.2,0.784,169
8747076,69977165920,712.0,87.2,0.814,169
8747165,69977877918,711.0,87.2,0.809,169
8747207,69978213918,336.0,87.2,0.486,185
8747350,69979357920,1144.0,87.2,0.295,185
8747447,69980133918,775.0,87.2,0.796,169
8747533,69980821918,688.0,87.2,0.853,169
8747622,69981533918,712.0,87.2,0.879,169
8747710,69982237920,704.0,87.2,0.885,169
8747798,69982941921,704.0,87.2,0.885,169
8747880,69983597920,655.0,87.2,0.86,169
8747964,69984269920,672.0,87.2,0.881,169
8748049,69984949920,680.0,87.2,0.895,169
8748139,69985669920,720.0,87.2,0.898,169
8748233,69986421916,751.0,87.2,0.844,169
8748331,69987205921,784.0,87.2,0.802,169
8748421,69987925920,719.0,87.2,0.743,169
8748512,69988653920,728.0,87.2,0.793,169
8748548,69988941916,287.0,87.2,0.513,173
8748642,69989693916,752.0,87.2,0.518,169
8748703,69990181921,488.0,87.2,0.843,169
8748801,69990965919,783.0,87.2,0.864,169
8748893,69991701917,735.0,87.2,0.834,169
8748989,69992469921,768.0,87.2,0.882,169
8749082,69993213920,743.0,87.2,0.802,169
8749175,69993957920,744.0,87.2,0.831,169
8749263,69994661917,703.0,87.2,0.787,169
8749346,69995325920,664.0,87.2,0.785,169
8749434,69996029920,704.0,87.2,0.824,169
8749521,69996725916,695.0,87.2,0.802,169
8749566,69997085920,360.0,87.2,0.52,169
8749652,69997773920,688.0,87.2,0.475,185
8749777,69998773920,1000.0,87.2,0.785,169
8749817,69999093920,320.0,87.2,0.484,185
8749900,69999757917,663.0,87.2,0.499,185
8749985,70000437917,680.0,87.2,0.534,169
8750083,70001221916,783.0,87.2,0.48,185
8750164,70001869920,648.0,87.2,0.487,185
8750218,70002301920,432.0,87.2,0.815,169
8750304,70002989920,688.0,87.2,0.823,169
8750423,70003941920,952.0,87.2,0.48,185
8750472,70004333920,392.0,87.2,0.838,169
8750591,70005285918,951.0,87.2,0.479,185
8750670,70005917916,631.0,87.2,0.507,169
8750767,70006693920,776.0,87.2,0.456,185
8750835,70007237920,544.0,87.2,0.494,185
8750955,70008197918,959.0,87.2,0.759,169
8751036,70008845920,648.0,87.2,0.793,169
8751117,70009493918,647.0,87.2,0.789,169
8751202,70010173916,679.0,87.2,0.802,169
8751290,70010877920,704.0,87.2,0.776,169
8751374,70011549920,672.0,87.2,0.767,169
8751458,70012221920,672.0,87.2,0.804,169
8751541,70012885920,664.0,87.2,0.795,169
8751582,70013213920,328.0,87.2,0.501,169
8751705,70014197920,984.0,87.2,0.773,169
8751782,70014813920,616.0,87.2,0.8,169
8751864,70015469918,655.0,87.2,0.854,169
8751948,70016141916,671.0,87.2,0.81,169
8752044,70016909918,768.0,87.2,0.84,169
8752108,70017421920,512.0,87.2,0.674,169
8752190,70018077918,655.0,87.2,0.809,169
8752446,70020125918,0.0,0.0,0.832,75
8752613,70021461919,1336.0,0.0,0.82,169
8752693,70022101920,640.0,0.0,0.794,169
8752771,70022725920,624.0,0.0,0.875,169
8752849,70023349920,624.0,0.0,0.85,169
8752927,70023973918,623.0,0.0,0.821,169
8753006,70024605918,632.0,0.0,0.808,169
8753128,70025581920,976.0,0.0,0.448,185
8753213,70026261918,679.0,0.0,0.475,185
8753289,70026869920,608.0,0.0,0.465,185
8753371,70027525919,655.0,0.0,0.494,185
8753454,70028189916,663.0,0.0,0.49,185
8753542,70028893920,704.0,0.0,0.492,185
8753657,70029813920,920.0,0.0,0.693,169
8753739,70030469917,655.0,0.0,0.824,169
8753781,70030805917,336.0,0.0,0.561,169
8753905,70031797920,992.0,0.0,0.748,169
8753987,70032453920,656.0,0.0,0.695,169
8754069,70033109917,655.0,0.0,0.845,169
8754150,70033757920,648.0,0.0,0.703,169
8754223,70034341919,583.0,0.0,0.681,169
8754297,70034933920,592.0,0.0,0.802,169
8754372,70035533918,599.0,0.0,0.743,169
8754442,70036093920,560.0,0.0,0.764,169
8754549,70036949920,856.0,0.0,0.499,185
8754655,70037797916,847.0,0.0,0.785,169
8754727,70038373917,576.0,0.0,0.855,169
8754799,70038949920,576.0,0.0,0.859,169
8754875,70039557920,608.0,0.0,0.859,169
8754952,70040173920,616.0,0.0,0.853,169
8755039,70040869917,695.0,0.0,0.85,169
8755128,70041581920,712.0,0.0,0.896,169
8755226,70042365920,784.0,0.0,0.853,169
8755329,70043189919,823.0,0.0,0.797,169
8755368,70043501920,312.0,0.0,0.442,185
8755476,70044365917,863.0,0.0,0.469,185
8755526,70044765920,400.0,0.0,0.812,169
8755619,70045509920,744.0,0.0,0.867,169
8755715,70046277920,768.0,0.0,0.78,169
8755808,70047021918,743.0,0.0,0.864,169
8755898,70047741920,720.0,0.0,0.855,169
8755984,70048429920,688.0,0.0,0.883,169
8756248,70050541920,0.0,0.0,0.815,75
8756349,70051349920,808.0,74.3,0.87,73
8756450,70052157920,808.0,74.3,0.821,73
8756551,70052965920,808.0,74.3,0.855,73
8756644,70053709921,744.0,74.3,0.804,73
8756740,70054477920,767.0,74.3,0.856,73
8756834,70055229920,752.0,76.1,0.841,73
8756925,70055957920,728.0,78.1,0.765,73
8757023,70056741921,784.0,77.3,0.815,73
8757308,70059021919,0.0,0.0,0.797,75
8757404,70059789919,768.0,78.1,0.897,73
8757498,70060541920,752.0,78.9,0.911,73
8757586,70061245916,703.0,79.8,0.862,73
8757679,70061989920,744.0,80.2,0.866,73
8757776,70062765916,775.0,79.8,0.727,73
8757861,70063445921,680.0,80.2,0.864,73
8757956,70064205918,759.0,79.8,0.881,73
8758050,70064957918,752.0,79.8,0.877,73
8758351,70067365920,0.0,0.0,0.785,75
8758450,70068157921,792.0,75.8,0.891,73
8758546,70068925916,767.0,76.9,0.856,73
8758638,70069661920,736.0,78.1,0.811,73
8758728,70070381920,720.0,79.8,0.842,73
8758815,70071077917,695.0,81.5,0.825,73
8758909,70071829916,751.0,80.6,0.847,73
8758998,70072541917,712.0,81.5,0.852,73
8759090,70073277917,736.0,81.5,0.84,73
8759184,70074029921,752.0,81.5,0.825,73
8759274,70074749920,719.0,81.5,0.871,73
8759368,70075501920,752.0,81.5,0.866,73
8759635,70077637916,0.0,0.0,0.806,75
8759722,70078333920,696.0,86.2,0.857,73
8759812,70079053918,719.0,84.7,0.872,73
8759903,70079781916,727.0,83.3,0.854,73
8759991,70080485920,704.0,84.3,0.858,73
8760086,70081245920,760.0,83.3,0.839,73
8760688,70086061916,0.0,0.0,0.813,75
8760790,70086877920,816.0,73.5,0.877,73
8760891,70087685921,808.0,73.9,0.864,73
8760986,70088445920,759.0,74.3,0.828,73
8761078,70089181920,736.0,76.5,0.861,73
8761169,70089909920,728.0,78.9,0.812,73
8761259,70090629920,720.0,80.2,0.832,73
8761398,70091741921,1112.0,80.2,0.47,185
8761517,70092693918,951.0,80.2,0.765,169
8761604,70093389920,696.0,80.2,0.797,169
8761696,70094125918,735.0,80.2,0.772,169
8761725,70094357920,232.0,80.2,0.54,173
8761870,70095517917,1159.0,80.2,0.808,169
8761953,70096181919,664.0,81.5,0.813,73
8762035,70096837920,656.0,82.0,0.856,73
8762127,70097573916,735.0,81.5,0.863,73
8762215,70098277918,704.0,82.4,0.853,73
8762305,70098997918,720.0,83.3,0.875,73
8762398,70099741920,744.0,83.3,0.888,73
8762494,70100509921,768.0,83.3,0.863,73
8762583,70101221916,711.0,83.3,0.849,73
8762666,70101885920,664.0,84.3,0.854,73
8762754,70102589918,703.0,84.3,0.829,73
8762843,70103301917,711.0,84.3,0.863,73
8762932,70104013921,712.0,84.3,0.873,73
8763018,70104701920,687.0,84.3,0.875,73
8763112,70105453920,752.0,84.3,0.865,73
8763201,70106165920,712.0,84.3,0.844,73
8763291,70106885920,720.0,84.3,0.895,73
8763387,70107653920,768.0,84.3,0.587,169
8763472,70108333921,680.0,84.3,0.891,169
8763563,70109061917,727.0,84.3,0.861,169
8763657,70109813920,752.0,84.3,0.87,169
8763744,70110509920,696.0,84.3,0.832,169
8763832,70111213920,704.0,84.3,0.795,169
8763921,70111925920,712.0,84.3,0.846,73
8764011,70112645921,720.0,84.3,0.828,73
8764098,70113341918,695.0,84.3,0.866,73
8764183,70114021920,680.0,84.3,0.881,73
8764271,70114725917,703.0,84.3,0.882,73
8764356,70115405920,680.0,84.3,0.88,73
8764442,70116093917,687.0,85.2,0.867,73
8764530,70116797920,704.0,85.2,0.866,73
8764619,70117509920,712.0,85.2,0.868,73
8764710,70118237920,728.0,85.2,0.863,73
8764802,70118973920,736.0,85.2,0.874,73
8764900,70119757920,784.0,85.2,0.876,73
8765001,70120565918,807.0,84.3,0.827,73
8765094,70121309920,744.0,82.4,0.809,73
8765189,70122069920,760.0,81.5,0.82,73
8765286,70122845921,776.0,80.6,0.816,73
8765380,70123597920,751.0,79.8,0.823,73
8765477,70124373920,776.0,78.9,0.811,73
8765573,70125141916,767.0,78.1,0.825,73
8765675,70125957920,816.0,77.3,0.794,73
8765772,70126733918,775.0,77.3,0.793,73
8765878,70127581917,847.0,77.3,0.793,169
8765915,70127877920,296.0,77.3,0.488,189
8766026,70128765920,888.0,77.3,0.503,169
8766137,70129653921,888.0,77.3,0.472,185
8766201,70130165918,511.0,77.3,0.828,169
8766305,70130997917,831.0,77.3,0.854,169
8766409,70131829920,832.0,78.1,0.872,73
8766504,70132589918,759.0,78.1,0.856,73
