seq,t_us,raw,avg,filtered,candidate,detector_score,expected_rr_ms,hr_bpm,flags
8934586,71477245920,36.0,42.0,-120.0,0,0.498,704.0,0.0,17
8934587,71477253921,30.0,39.0,-120.0,1,0.49,704.0,0.0,17
8934588,71477261921,36.0,38.0,-121.0,0,0.499,704.0,0.0,17
8934589,71477269920,27.0,35.0,-122.0,0,0.5,704.0,0.0,17
8934590,71477277921,28.0,34.0,-123.0,0,0.501,704.0,0.0,17
8934591,71477285920,28.0,32.0,-124.0,0,0.502,704.0,0.0,17
8934592,71477293918,21.0,30.0,-125.0,0,0.503,704.0,0.0,17
8934593,71477301916,30.0,30.0,-125.0,1,0.494,704.0,0.0,17
8934594,71477309920,20.0,27.0,-126.0,0,0.503,704.0,0.0,17
8934595,71477317920,24.0,27.0,-127.0,0,0.504,704.0,0.0,17
8934596,71477325920,25.0,26.0,-127.0,1,0.496,704.0,0.0,17
8934597,71477333920,20.0,25.0,-128.0,0,0.504,704.0,0.0,17
8934598,71477341921,28.0,25.0,-127.0,1,0.502,704.0,0.0,17
8934599,71477349917,19.0,24.0,-127.0,1,0.494,704.0,0.0,17
8934600,71477357920,25.0,24.0,-127.0,0,0.493,704.0,0.0,17
8934601,71477365917,29.0,25.0,-126.0,0,0.499,704.0,0.0,17
8934602,71477373920,23.0,25.0,-126.0,1,0.491,704.0,0.0,17
8934603,71477381918,34.0,27.0,-124.0,0,0.503,704.0,0.0,17
8934604,71477389917,28.0,27.0,-123.0,0,0.493,704.0,0.0,17
8934605,71477397920,32.0,28.0,-122.0,0,0.491,704.0,0.0,17
8934606,71477405921,34.0,30.0,-120.0,0,0.495,704.0,0.0,17
8934607,71477413920,35.0,31.0,-118.0,0,0.492,704.0,0.0,17
8934608,71477421917,49.0,35.0,-116.0,0,0.488,704.0,0.0,17
8934609,71477429920,53.0,40.0,-112.0,0,0.498,704.0,0.0,17
8934610,71477437916,73.0,48.0,-107.0,0,0.498,704.0,0.0,17
8934611,71477445920,96.0,59.0,-100.0,0,0.504,704.0,0.0,17
8934612,71477453920,122.0,75.0,-91.0,0,0.507,704.0,0.0,17
8934613,71477461918,166.0,97.0,-78.0,0,0.521,704.0,0.0,17
8934614,71477469920,200.0,122.0,-61.0,0,0.526,704.0,0.0,17
8934615,71477477920,249.0,153.0,-41.0,0,0.518,704.0,0.0,17
8934616,71477485916,296.0,187.0,-16.0,0,0.513,704.0,0.0,17
8934617,71477493917,333.0,223.0,12.0,0,0.543,704.0,0.0,17
8934618,71477501921,382.0,261.0,42.0,0,0.595,704.0,0.0,17
8934619,71477509917,411.0,298.0,74.0,0,0.65,704.0,0.0,17
8934620,71477517918,450.0,335.0,107.0,0,0.703,704.0,0.0,17
8934621,71477525916,476.0,369.0,140.0,0,0.749,704.0,0.0,17
8934622,71477533920,496.0,400.0,171.0,0,0.78,704.0,0.0,17
8934623,71477541920,522.0,429.0,202.0,0,0.813,704.0,0.0,17
8934624,71477549920,524.0,452.0,230.0,0,0.826,704.0,0.0,17
8934625,71477557918,533.0,472.0,255.0,0,0.829,704.0,0.0,17
8934626,71477565920,529.0,486.0,276.0,0,0.819,704.0,0.0,17
8934627,71477573918,520.0,494.0,293.0,0,0.801,704.0,0.0,17
8934628,71477581920,518.0,500.0,306.0,0,0.776,704.0,0.0,17
8934629,71477589920,492.0,498.0,314.0,0,0.739,704.0,0.0,17
8934630,71477597920,478.0,493.0,318.0,0,0.708,704.0,0.0,17
8934631,71477605916,453.0,483.0,317.0,1,0.683,704.0,0.0,17
8934632,71477613920,425.0,469.0,312.0,0,0.711,704.0,0.0,17
8934633,71477621921,400.0,452.0,303.0,0,0.739,704.0,0.0,17
8934634,71477629920,364.0,431.0,290.0,0,0.764,704.0,0.0,17
8934635,71477637917,340.0,409.0,274.0,0,0.776,704.0,0.0,17
8934636,71477645920,307.0,384.0,255.0,0,0.784,704.0,0.0,17
8934637,71477653917,268.0,356.0,233.0,0,0.784,704.0,0.0,17
8934638,71477661920,243.0,329.0,210.0,0,0.768,704.0,0.0,17
8934639,71477669920,202.0,298.0,184.0,0,0.756,704.0,0.0,17
8934640,71477677918,180.0,269.0,157.0,0,0.728,704.0,0.0,17
8934641,71477685918,151.0,241.0,129.0,0,0.695,704.0,0.0,17
8934642,71477693919,122.0,212.0,101.0,0,0.655,704.0,0.0,17
8934643,71477701917,111.0,187.0,74.0,0,0.611,704.0,0.0,17
8934644,71477709916,82.0,162.0,48.0,0,0.568,704.0,0.0,17
8934645,71477717920,68.0,139.0,22.0,0,0.532,704.0,0.0,17
8934646,71477725921,57.0,119.0,-1.0,0,0.486,704.0,0.0,17
8934647,71477733920,44.0,101.0,-23.0,0,0.505,704.0,0.0,17
8934648,71477741921,42.0,87.0,-43.0,0,0.519,704.0,0.0,17
8934649,71477749917,28.0,72.0,-61.0,0,0.531,704.0,0.0,17
8934650,71477757920,30.0,62.0,-76.0,0,0.531,704.0,0.0,17
8934651,71477765920,26.0,53.0,-90.0,0,0.544,704.0,0.0,17
8934652,71477773918,25.0,47.0,-101.0,0,0.536,704.0,0.0,17
8934653,71477781920,33.0,43.0,-110.0,0,0.533,704.0,0.0,17
8934654,71477789917,27.0,39.0,-117.0,0,0.527,704.0,0.0,17
8934655,71477797918,32.0,38.0,-122.0,0,0.517,704.0,0.0,17
8934656,71477805918,37.0,37.0,-126.0,0,0.515,704.0,0.0,17
8934657,71477813920,35.0,37.0,-128.0,0,0.502,704.0,0.0,17
8934658,71477821916,45.0,39.0,-129.0,0,0.496,704.0,0.0,17
8934659,71477829916,36.0,38.0,-130.0,0,0.497,704.0,0.0,17
8934660,71477837918,42.0,39.0,-130.0,1,0.49,704.0,0.0,17
8934661,71477845918,46.0,41.0,-129.0,0,0.496,704.0,0.0,17
8934662,71477853917,36.0,40.0,-128.0,0,0.494,704.0,0.0,17
8934663,71477861917,44.0,41.0,-127.0,0,0.493,704.0,0.0,17
8934664,71477869919,34.0,39.0,-127.0,1,0.486,704.0,0.0,17
8934665,71477877916,39.0,39.0,-126.0,0,0.492,704.0,0.0,17
8934666,71477885916,36.0,38.0,-126.0,1,0.484,704.0,0.0,17
8934667,71477893918,27.0,36.0,-126.0,0,0.484,704.0,0.0,17
8934668,71477901920,36.0,36.0,-126.0,0,0.484,704.0,0.0,17
8934669,71477909920,24.0,33.0,-127.0,0,0.493,704.0,0.0,17
8934670,71477917921,27.0,31.0,-127.0,1,0.486,704.0,0.0,17
8934671,71477925920,27.0,30.0,-128.0,0,0.494,704.0,0.0,17
8934672,71477933917,15.0,27.0,-129.0,0,0.496,704.0,0.0,17
8934673,71477941918,25.0,26.0,-129.0,1,0.488,704.0,0.0,17
8934674,71477949920,17.0,24.0,-130.0,0,0.497,704.0,0.0,17
8934675,71477957920,20.0,23.0,-131.0,0,0.498,704.0,0.0,17
8934676,71477965920,24.0,23.0,-131.0,1,0.491,704.0,0.0,17
8934677,71477973917,21.0,23.0,-131.0,0,0.49,704.0,0.0,17
8934678,71477981921,32.0,25.0,-130.0,0,0.496,704.0,0.0,17
8934679,71477989920,29.0,26.0,-129.0,0,0.495,704.0,0.0,17
8934680,71477997916,40.0,29.0,-127.0,0,0.499,704.0,0.0,17
8934681,71478005921,45.0,33.0,-124.0,0,0.502,704.0,0.0,17
8934682,71478013921,41.0,35.0,-122.0,0,0.492,704.0,0.0,17
8934683,71478021920,56.0,40.0,-118.0,0,0.501,704.0,0.0,17
8934684,71478029920,51.0,43.0,-114.0,0,0.495,704.0,0.0,17
8934685,71478037920,62.0,47.0,-110.0,0,0.489,704.0,0.0,17
8934686,71478045920,67.0,52.0,-106.0,0,0.483,704.0,0.0,17
8934687,71478053920,63.0,55.0,-102.0,0,0.477,704.0,0.0,17
8934688,71478061920,75.0,60.0,-97.0,0,0.478,704.0,0.0,17
8934689,71478069920,70.0,62.0,-93.0,0,0.464,704.0,0.0,17
8934690,71478077921,76.0,66.0,-89.0,0,0.458,704.0,0.0,17
8934691,71478085920,80.0,69.0,-85.0,0,0.452,704.0,0.0,17
8934692,71478093920,76.0,71.0,-82.0,0,0.44,704.0,0.0,17
8934693,71478101918,88.0,75.0,-78.0,0,0.442,704.0,0.0,17
8934694,71478109920,85.0,77.0,-74.0,0,0.436,704.0,0.0,17
8934695,71478117918,104.0,84.0,-70.0,0,0.43,704.0,0.0,17
8934696,71478125920,122.0,93.0,-64.0,0,0.438,704.0,0.0,17
8934697,71478133920,146.0,106.0,-56.0,0,0.443,704.0,0.0,17
8934698,71478141918,185.0,125.0,-45.0,0,0.452,704.0,0.0,17
8934699,71478149920,211.0,146.0,-31.0,0,0.457,704.0,0.0,17
8934700,71478157917,253.0,172.0,-14.0,0,0.458,704.0,0.0,17
8934701,71478165920,295.0,202.0,7.0,0,0.493,704.0,0.0,17
8934702,71478173921,329.0,233.0,31.0,0,0.544,704.0,0.0,17
8934703,71478181918,374.0,267.0,57.0,0,0.593,704.0,0.0,17
8934704,71478189920,400.0,299.0,85.0,0,0.644,704.0,0.0,17
8934705,71478197918,436.0,332.0,114.0,0,0.691,704.0,0.0,17
8934706,71478205920,463.0,364.0,143.0,0,0.732,704.0,0.0,17
8934707,71478213920,476.0,391.0,171.0,0,0.763,704.0,0.0,17
8934708,71478221918,501.0,418.0,199.0,0,0.795,704.0,0.0,17
8934709,71478229918,502.0,438.0,223.0,0,0.798,704.0,0.0,17
8934710,71478237920,511.0,456.0,246.0,0,0.812,704.0,0.0,17
8934711,71478245920,515.0,470.0,265.0,0,0.799,704.0,0.0,17
8934712,71478253920,500.0,477.0,280.0,0,0.78,704.0,0.0,17
8934713,71478261918,498.0,482.0,292.0,0,0.762,704.0,0.0,17
8934714,71478269916,474.0,480.0,299.0,0,0.725,704.0,0.0,17
8934715,71478277920,457.0,475.0,302.0,0,0.694,704.0,0.0,17
8934716,71478285918,437.0,466.0,301.0,1,0.678,704.0,0.0,17
8934717,71478293918,404.0,451.0,295.0,0,0.713,704.0,0.0,17
8934718,71478301917,383.0,434.0,286.0,0,0.732,704.0,0.0,17
8934719,71478309920,348.0,413.0,273.0,0,0.755,704.0,0.0,17
8934720,71478317920,320.0,391.0,257.0,0,0.767,704.0,0.0,17
8934721,71478325920,284.0,365.0,238.0,0,0.772,704.0,0.0,17
8934722,71478333920,247.0,336.0,215.0,0,0.776,704.0,0.0,17
8934723,71478341920,223.0,309.0,191.0,0,0.756,704.0,0.0,17
8934724,71478349917,181.0,278.0,165.0,0,0.735,704.0,0.0,17
8934725,71478357921,160.0,249.0,138.0,0,0.704,704.0,0.0,17
8934726,71478365917,137.0,222.0,111.0,0,0.666,704.0,0.0,17
8934727,71478373920,102.0,193.0,83.0,0,0.63,704.0,0.0,17
8934728,71478381917,91.0,168.0,57.0,0,0.582,704.0,0.0,17
8934729,71478389917,61.0,142.0,30.0,0,0.55,704.0,0.0,17
8934730,71478397920,53.0,121.0,5.0,0,0.506,704.0,0.0,17
8934731,71478405920,44.0,102.0,-18.0,0,0.505,704.0,0.0,17
8934732,71478413920,31.0,85.0,-39.0,0,0.52,704.0,0.0,17
8934733,71478421916,35.0,73.0,-58.0,0,0.532,704.0,0.0,17
8934734,71478429917,20.0,60.0,-74.0,0,0.533,704.0,0.0,17
8934735,71478437917,27.0,52.0,-88.0,0,0.538,704.0,0.0,17
8934736,71478445921,25.0,45.0,-100.0,0,0.539,704.0,0.0,17
8934737,71478453917,20.0,39.0,-109.0,0,0.528,704.0,0.0,17
8934738,71478461919,31.0,37.0,-117.0,0,0.531,704.0,0.0,17
8934739,71478469916,27.0,35.0,-122.0,0,0.514,704.0,0.0,17
8934740,71478477917,33.0,34.0,-126.0,0,0.512,704.0,0.0,17
8934741,71478485919,34.0,34.0,-129.0,0,0.508,704.0,0.0,17
8934742,71478493918,32.0,34.0,-130.0,0,0.494,704.0,0.0,17
8934743,71478501918,40.0,35.0,-131.0,0,0.495,704.0,0.0,17
8934744,71478509920,31.0,34.0,-131.0,1,0.488,704.0,0.0,17
8934745,71478517920,43.0,36.0,-131.0,0,0.488,704.0,0.0,17
8934746,71478525920,41.0,37.0,-130.0,0,0.493,704.0,0.0,17
8934747,71478533920,33.0,36.0,-129.0,0,0.492,704.0,0.0,17
8934748,71478541917,43.0,38.0,-128.0,0,0.49,704.0,0.0,17
8934749,71478549921,34.0,37.0,-127.0,0,0.488,704.0,0.0,17
8934750,71478557921,36.0,37.0,-127.0,1,0.481,704.0,0.0,17
8934751,71478565919,36.0,37.0,-126.0,0,0.486,704.0,0.0,17
8934752,71478573920,28.0,35.0,-126.0,1,0.479,704.0,0.0,17
8934753,71478581920,36.0,35.0,-125.0,0,0.485,704.0,0.0,17
8934754,71478589920,22.0,32.0,-126.0,1,0.486,704.0,0.0,17
8934755,71478597916,28.0,31.0,-126.0,1,0.479,704.0,0.0,17
8934756,71478605920,28.0,30.0,-126.0,0,0.478,704.0,0.0,17
8934757,71478613920,24.0,29.0,-126.0,0,0.478,704.0,0.0,17
8934758,71478621920,29.0,29.0,-126.0,0,0.478,704.0,0.0,17
8934759,71478629916,16.0,26.0,-127.0,0,0.487,704.0,0.0,17
8934760,71478637920,22.0,25.0,-127.0,1,0.479,704.0,0.0,17
8934761,71478645916,21.0,24.0,-128.0,0,0.488,704.0,0.0,17
8934762,71478653920,17.0,22.0,-128.0,1,0.48,704.0,0.0,17
8934763,71478661918,28.0,24.0,-128.0,0,0.48,704.0,0.0,17
8934764,71478669920,17.0,22.0,-128.0,0,0.48,704.0,0.0,17
8934765,71478677918,24.0,22.0,-127.0,0,0.486,704.0,0.0,17
8934766,71478685920,24.0,23.0,-127.0,1,0.478,704.0,0.0,17
8934767,71478693917,24.0,23.0,-126.0,0,0.484,704.0,0.0,17
8934768,71478701920,30.0,25.0,-125.0,0,0.483,704.0,0.0,17
8934769,71478709920,24.0,25.0,-124.0,0,0.481,704.0,0.0,17
8934770,71478717921,32.0,26.0,-122.0,0,0.486,704.0,0.0,17
8934771,71478725920,35.0,28.0,-120.0,0,0.483,704.0,0.0,17
8934772,71478733920,32.0,29.0,-119.0,0,0.474,704.0,0.0,17
8934773,71478741920,44.0,33.0,-116.0,0,0.484,704.0,0.0,17
8934774,71478749920,40.0,35.0,-114.0,0,0.474,704.0,0.0,17
8934775,71478757918,50.0,38.0,-110.0,0,0.483,704.0,0.0,17
8934776,71478765918,52.0,42.0,-107.0,0,0.471,704.0,0.0,17
8934777,71478773918,57.0,45.0,-104.0,0,0.466,704.0,0.0,17
8934778,71478781918,83.0,54.0,-98.0,0,0.481,704.0,0.0,17
8934779,71478789920,94.0,64.0,-92.0,0,0.472,704.0,0.0,17
8934780,71478797917,127.0,79.0,-82.0,0,0.491,704.0,0.0,17
8934781,71478805920,164.0,100.0,-70.0,0,0.49,704.0,0.0,17
8934782,71478813918,198.0,124.0,-54.0,0,0.5,704.0,0.0,17
8934783,71478821920,248.0,154.0,-34.0,0,0.502,704.0,0.0,17
8934784,71478829916,285.0,186.0,-11.0,0,0.492,704.0,0.0,17
8934785,71478837917,331.0,221.0,16.0,0,0.544,704.0,0.0,17
8934786,71478845918,370.0,257.0,45.0,0,0.593,704.0,0.0,17
8934787,71478853921,400.0,292.0,75.0,0,0.641,704.0,0.0,17
8934788,71478861920,442.0,328.0,107.0,0,0.695,704.0,0.0,17
8934789,71478869917,459.0,360.0,138.0,0,0.734,704.0,0.0,17
8934790,71478877920,490.0,391.0,169.0,0,0.774,704.0,0.0,17
8934791,71478885920,500.0,418.0,198.0,0,0.798,704.0,0.0,17
8934792,71478893920,507.0,439.0,224.0,0,0.808,704.0,0.0,17
8934793,71478901920,520.0,459.0,248.0,0,0.817,704.0,0.0,17
8934794,71478909920,513.0,472.0,268.0,0,0.806,704.0,0.0,17
8934795,71478917918,508.0,481.0,285.0,0,0.795,704.0,0.0,17
8934796,71478925920,501.0,486.0,297.0,0,0.763,704.0,0.0,17
8934797,71478933920,482.0,485.0,305.0,0,0.734,704.0,0.0,17
8934798,71478941920,474.0,482.0,310.0,0,0.712,704.0,0.0,17
8934799,71478949920,444.0,473.0,309.0,1,0.68,704.0,0.0,17
8934800,71478957919,431.0,463.0,306.0,0,0.692,704.0,0.0,17
8934801,71478965920,402.0,448.0,299.0,0,0.719,704.0,0.0,17
8934802,71478973920,366.0,428.0,287.0,0,0.751,704.0,0.0,17
8934803,71478981920,348.0,409.0,273.0,0,0.757,704.0,0.0,17
8934804,71478989920,308.0,384.0,256.0,0,0.766,704.0,0.0,17
8934805,71478997917,282.0,359.0,236.0,0,0.769,704.0,0.0,17
8934806,71479005920,247.0,332.0,213.0,0,0.765,704.0,0.0,17
8934807,71479013920,211.0,303.0,189.0,0,0.744,704.0,0.0,17
8934808,71479021916,188.0,275.0,163.0,0,0.723,704.0,0.0,17
8934809,71479029917,154.0,246.0,136.0,0,0.692,704.0,0.0,17
8934810,71479037920,135.0,219.0,109.0,0,0.654,704.0,0.0,17
8934811,71479045920,108.0,192.0,82.0,0,0.616,704.0,0.0,17
8934812,71479053920,87.0,167.0,56.0,0,0.574,704.0,0.0,17
8934813,71479061918,74.0,144.0,31.0,0,0.535,704.0,0.0,17
8934814,71479069917,51.0,122.0,6.0,0,0.503,704.0,0.0,17
8934815,71479077917,45.0,103.0,-16.0,0,0.495,704.0,0.0,17
8934816,71479085920,35.0,86.0,-37.0,0,0.515,704.0,0.0,17
8934817,71479093920,22.0,71.0,-56.0,0,0.526,704.0,0.0,17
8934818,71479101921,28.0,60.0,-73.0,0,0.535,704.0,0.0,17
8934819,71479109916,14.0,49.0,-87.0,0,0.532,704.0,0.0,17
8934820,71479117918,18.0,42.0,-100.0,0,0.542,704.0,0.0,17
8934821,71479125920,16.0,35.0,-110.0,0,0.532,704.0,0.0,17
8934822,71479133921,11.0,30.0,-119.0,0,0.537,704.0,0.0,17
8934823,71479141918,23.0,28.0,-125.0,0,0.521,704.0,0.0,17
8934824,71479149917,15.0,25.0,-130.0,0,0.52,704.0,0.0,17
8934825,71479157920,20.0,24.0,-134.0,0,0.518,704.0,0.0,17
8934826,71479165917,22.0,23.0,-137.0,0,0.514,704.0,0.0,17
8934827,71479173917,18.0,22.0,-139.0,0,0.509,704.0,0.0,17
8934828,71479181917,28.0,23.0,-139.0,1,0.495,704.0,0.0,17
8934829,71479189920,24.0,24.0,-140.0,0,0.503,704.0,0.0,17
8934830,71479197920,29.0,25.0,-139.0,1,0.502,704.0,0.0,17
8934831,71479205920,31.0,26.0,-138.0,0,0.5,704.0,0.0,17
8934832,71479213921,28.0,27.0,-137.0,0,0.499,704.0,0.0,17
8934833,71479221921,38.0,29.0,-135.0,0,0.503,704.0,0.0,17
8934834,71479229921,31.0,30.0,-133.0,0,0.5,704.0,0.0,17
8934835,71479237920,38.0,32.0,-132.0,0,0.492,704.0,0.0,17
8934836,71479245918,41.0,34.0,-129.0,0,0.502,704.0,0.0,17
8934837,71479253918,39.0,35.0,-127.0,0,0.492,704.0,0.0,17
8934838,71479261921,45.0,38.0,-125.0,0,0.489,704.0,0.0,17
8934839,71479269920,40.0,38.0,-122.0,0,0.493,704.0,0.0,17
8934840,71479277920,50.0,41.0,-120.0,0,0.483,704.0,0.0,17
8934841,71479285920,50.0,43.0,-117.0,0,0.486,704.0,0.0,17
8934842,71479293919,46.0,44.0,-115.0,0,0.476,704.0,0.0,17
8934843,71479301920,60.0,48.0,-112.0,0,0.479,704.0,0.0,17
8934844,71479309918,54.0,49.0,-109.0,0,0.475,704.0,0.0,17
8934845,71479317921,64.0,53.0,-106.0,0,0.471,704.0,0.0,17
8934846,71479325917,66.0,56.0,-103.0,0,0.467,704.0,0.0,17
8934847,71479333917,64.0,58.0,-99.0,0,0.469,704.0,0.0,17
8934848,71479341920,76.0,62.0,-96.0,0,0.458,704.0,0.0,17
8934849,71479349920,68.0,64.0,-93.0,0,0.454,704.0,0.0,17
8934850,71479357920,80.0,68.0,-89.0,0,0.456,704.0,0.0,17
8934851,71479365921,84.0,72.0,-85.0,0,0.45,704.0,0.0,17
8934852,71479373918,86.0,75.0,-82.0,0,0.439,704.0,0.0,17
8934853,71479381920,98.0,81.0,-77.0,0,0.447,704.0,0.0,17
8934854,71479389921,94.0,84.0,-73.0,0,0.434,704.0,0.0,17
8934855,71479397918,103.0,89.0,-68.0,0,0.434,704.0,0.0,17
8934856,71479405918,104.0,92.0,-64.0,0,0.421,704.0,0.0,17
8934857,71479413921,102.0,95.0,-60.0,0,0.415,704.0,0.0,17
8934858,71479421917,119.0,101.0,-56.0,0,0.41,704.0,0.0,17
8934859,71479429918,116.0,104.0,-51.0,0,0.411,704.0,0.0,17
8934860,71479437920,132.0,111.0,-46.0,0,0.404,704.0,0.0,17
8934861,71479445921,144.0,119.0,-40.0,0,0.403,704.0,0.0,17
8934862,71479453917,166.0,130.0,-33.0,0,0.402,704.0,0.0,17
8934863,71479461920,203.0,148.0,-22.0,0,0.421,704.0,0.0,17
8934864,71479469916,228.0,167.0,-9.0,0,0.421,704.0,0.0,17
8934865,71479477920,271.0,193.0,7.0,0,0.457,704.0,0.0,17
8934866,71479485921,308.0,221.0,27.0,0,0.513,704.0,0.0,17
8934867,71479493916,342.0,250.0,49.0,0,0.556,704.0,0.0,17
8934868,71479501920,389.0,284.0,74.0,0,0.61,704.0,0.0,17
8934869,71479509920,414.0,315.0,101.0,0,0.659,704.0,0.0,17
8934870,71479517920,453.0,349.0,129.0,0,0.703,704.0,0.0,17
8934871,71479525918,476.0,380.0,158.0,0,0.746,704.0,0.0,17
8934872,71479533920,494.0,407.0,185.0,0,0.769,704.0,0.0,17
8934873,71479541917,524.0,436.0,213.0,0,0.803,704.0,0.0,17
8934874,71479549920,528.0,458.0,238.0,0,0.81,704.0,0.0,17
8934875,71479557920,542.0,478.0,262.0,0,0.822,704.0,0.0,17
8934876,71479565920,542.0,494.0,282.0,0,0.81,704.0,0.0,17
8934877,71479573920,530.0,503.0,299.0,0,0.798,704.0,0.0,17
8934878,71479581917,528.0,509.0,311.0,0,0.766,704.0,0.0,17
8934879,71479589920,502.0,507.0,319.0,0,0.736,704.0,0.0,17
8934880,71479597920,490.0,503.0,323.0,0,0.705,704.0,0.0,17
8934881,71479605920,470.0,495.0,323.0,1,0.673,704.0,0.0,17
8934882,71479613921,444.0,483.0,319.0,0,0.7,704.0,0.0,17
8934883,71479621921,424.0,468.0,312.0,0,0.719,704.0,0.0,17
8934884,71479629920,389.0,449.0,300.0,0,0.752,704.0,0.0,17
8934885,71479637917,367.0,429.0,286.0,0,0.757,704.0,0.0,17
8934886,71479645920,338.0,407.0,269.0,0,0.767,704.0,0.0,17
8934887,71479653920,301.0,381.0,249.0,0,0.77,704.0,0.0,17
8934888,71479661920,282.0,357.0,228.0,0,0.756,704.0,0.0,17
8934889,71479669920,240.0,329.0,204.0,0,0.748,704.0,0.0,17
8934890,71479677917,216.0,302.0,179.0,0,0.724,704.0,0.0,17
8934891,71479685920,184.0,273.0,153.0,0,0.695,704.0,0.0,17
8934892,71479693920,157.0,245.0,126.0,0,0.664,704.0,0.0,17
8934893,71479701918,140.0,219.0,99.0,0,0.626,704.0,0.0,17
8934894,71479709920,109.0,193.0,73.0,0,0.585,704.0,0.0,17
8934895,71479717920,99.0,170.0,47.0,0,0.55,704.0,0.0,17
8934896,71479725920,82.0,149.0,23.0,0,0.509,704.0,0.0,17
8934897,71479733921,64.0,128.0,0.0,0,0.489,704.0,0.0,17
8934898,71479741918,62.0,112.0,-21.0,0,0.502,704.0,0.0,17
8934899,71479749920,48.0,97.0,-40.0,0,0.512,704.0,0.0,17
8934900,71479757920,48.0,85.0,-57.0,0,0.521,704.0,0.0,17
8934901,71479765916,44.0,75.0,-71.0,0,0.517,704.0,0.0,17
8934902,71479773920,36.0,65.0,-84.0,0,0.527,704.0,0.0,17
8934903,71479781920,47.0,61.0,-95.0,0,0.526,704.0,0.0,17
8934904,71479789917,38.0,55.0,-103.0,0,0.514,704.0,0.0,17
8934905,71479797921,44.0,53.0,-110.0,0,0.515,704.0,0.0,17
8934906,71479805920,45.0,51.0,-115.0,0,0.506,704.0,0.0,17
8934907,71479813920,46.0,50.0,-119.0,0,0.504,704.0,0.0,17
8934908,71479821920,55.0,51.0,-121.0,0,0.492,704.0,0.0,17
8934909,71479829917,48.0,50.0,-123.0,0,0.494,704.0,0.0,17
8934910,71479837920,54.0,51.0,-123.0,1,0.48,704.0,0.0,17
8934911,71479845916,58.0,53.0,-123.0,0,0.48,704.0,0.0,17
8934912,71479853920,52.0,53.0,-122.0,0,0.486,704.0,0.0,17
8934913,71479861918,61.0,55.0,-121.0,0,0.485,704.0,0.0,17
8934914,71479869920,54.0,54.0,-120.0,0,0.483,704.0,0.0,17
8934915,71479877920,59.0,56.0,-119.0,0,0.482,704.0,0.0,17
8934916,71479885917,54.0,55.0,-118.0,0,0.481,704.0,0.0,17
8934917,71479893920,51.0,54.0,-117.0,0,0.48,704.0,0.0,17
8934918,71479901918,52.0,54.0,-117.0,1,0.473,704.0,0.0,17
8934919,71479909920,46.0,52.0,-117.0,0,0.473,704.0,0.0,17
8934920,71479917920,52.0,52.0,-117.0,0,0.473,704.0,0.0,17
8934921,71479925920,46.0,50.0,-117.0,0,0.473,704.0,0.0,17
8934922,71479933920,41.0,48.0,-117.0,0,0.473,704.0,0.0,17
8934923,71479941920,49.0,48.0,-117.0,0,0.473,704.0,0.0,17
8934924,71479949921,36.0,45.0,-118.0,0,0.481,704.0,0.0,17
8934925,71479957921,42.0,45.0,-118.0,1,0.474,704.0,0.0,17
8934926,71479965920,36.0,42.0,-119.0,0,0.483,704.0,0.0,17
8934927,71479973920,32.0,40.0,-120.0,0,0.484,704.0,0.0,17
8934928,71479981921,36.0,39.0,-121.0,0,0.485,704.0,0.0,17
8934929,71479989920,27.0,36.0,-122.0,0,0.487,704.0,0.0,17
8934930,71479997920,33.0,35.0,-122.0,1,0.48,704.0,0.0,17
8934931,71480005917,28.0,34.0,-123.0,0,0.488,704.0,0.0,17
8934932,71480013920,26.0,32.0,-124.0,0,0.489,704.0,0.0,17
8934933,71480021920,34.0,32.0,-124.0,1,0.482,704.0,0.0,17
8934934,71480029917,24.0,30.0,-125.0,0,0.49,704.0,0.0,17
8934935,71480037921,34.0,31.0,-125.0,1,0.482,704.0,0.0,17
8934936,71480045917,34.0,32.0,-124.0,0,0.488,704.0,0.0,17
8934937,71480053917,30.0,31.0,-124.0,1,0.48,704.0,0.0,17
8934938,71480061920,40.0,33.0,-123.0,0,0.485,704.0,0.0,17
8934939,71480069920,32.0,33.0,-122.0,0,0.483,704.0,0.0,17
8934940,71480077919,39.0,35.0,-120.0,0,0.487,704.0,0.0,17
8934941,71480085919,37.0,35.0,-119.0,0,0.477,704.0,0.0,17
8934942,71480093918,34.0,35.0,-118.0,0,0.475,704.0,0.0,17
8934943,71480101918,40.0,36.0,-116.0,0,0.479,704.0,0.0,17
8934944,71480109921,33.0,35.0,-116.0,1,0.463,704.0,0.0,17
8934945,71480117920,42.0,37.0,-114.0,0,0.474,704.0,0.0,17
8934946,71480125920,40.0,38.0,-113.0,0,0.464,704.0,0.0,17
8934947,71480133917,38.0,38.0,-112.0,0,0.462,704.0,0.0,17
8934948,71480141920,56.0,42.0,-109.0,0,0.473,704.0,0.0,17
8934949,71480149920,57.0,46.0,-106.0,0,0.468,704.0,0.0,17
8934950,71480157920,81.0,54.0,-102.0,0,0.469,704.0,0.0,17
8934951,71480165920,106.0,67.0,-95.0,0,0.484,704.0,0.0,17
8934952,71480173917,131.0,82.0,-85.0,0,0.495,704.0,0.0,17
8934953,71480181920,173.0,104.0,-72.0,0,0.5,704.0,0.0,17
8934954,71480189920,203.0,128.0,-56.0,0,0.501,704.0,0.0,17
8934955,71480197920,246.0,157.0,-36.0,0,0.502,704.0,0.0,17
8934956,71480205918,288.0,189.0,-13.0,0,0.491,704.0,0.0,17
8934957,71480213920,321.0,221.0,13.0,0,0.54,704.0,0.0,17
8934958,71480221918,367.0,256.0,41.0,0,0.589,704.0,0.0,17
8934959,71480229920,383.0,287.0,70.0,0,0.636,704.0,0.0,17
8934960,71480237919,421.0,319.0,99.0,0,0.678,704.0,0.0,17
8934961,71480245916,439.0,348.0,128.0,0,0.719,704.0,0.0,17
8934962,71480253918,451.0,373.0,155.0,0,0.745,704.0,0.0,17
8934963,71480261921,468.0,396.0,181.0,0,0.77,704.0,0.0,17
8934964,71480269920,462.0,412.0,203.0,0,0.77,704.0,0.0,17
8934965,71480277916,468.0,426.0,223.0,0,0.775,704.0,0.0,17
8934966,71480285920,454.0,433.0,238.0,0,0.75,704.0,0.0,17
8934967,71480293920,438.0,434.0,249.0,0,0.725,704.0,0.0,17
8934968,71480301920,428.0,432.0,255.0,0,0.686,704.0,0.0,17
8934969,71480309918,396.0,424.0,257.0,0,0.653,704.0,0.0,17
8934970,71480317916,376.0,412.0,255.0,1,0.65,704.0,0.0,17
8934971,71480325920,348.0,397.0,248.0,0,0.684,704.0,0.0,17
8934972,71480333918,314.0,377.0,237.0,0,0.708,704.0,0.0,17
8934973,71480341918,292.0,356.0,223.0,0,0.718,704.0,0.0,17
8934974,71480349921,250.0,330.0,205.0,0,0.729,704.0,0.0,17
8934975,71480357920,221.0,304.0,185.0,0,0.72,704.0,0.0,17
8934976,71480365920,185.0,275.0,162.0,0,0.71,704.0,0.0,17
8934977,71480373920,150.0,245.0,137.0,0,0.687,704.0,0.0,17
8934978,71480381920,127.0,216.0,111.0,0,0.656,704.0,0.0,17
8934979,71480389920,89.0,185.0,83.0,0,0.625,704.0,0.0,17
8934980,71480397921,78.0,159.0,56.0,0,0.582,704.0,0.0,17
8934981,71480405917,60.0,135.0,30.0,0,0.541,704.0,0.0,17
8934982,71480413917,42.0,113.0,5.0,0,0.504,704.0,0.0,17
8934983,71480421917,42.0,96.0,-18.0,0,0.509,704.0,0.0,17
8934984,71480429916,28.0,79.0,-39.0,0,0.523,704.0,0.0,17
8934985,71480437917,32.0,68.0,-57.0,0,0.527,704.0,0.0,17
8934986,71480445920,31.0,59.0,-72.0,0,0.526,704.0,0.0,17
8934987,71480453920,27.0,51.0,-84.0,0,0.519,704.0,0.0,17
8934988,71480461920,31.0,46.0,-95.0,0,0.526,704.0,0.0,17
8934989,71480469920,20.0,40.0,-104.0,0,0.523,704.0,0.0,17
8934990,71480477920,25.0,36.0,-111.0,0,0.517,704.0,0.0,17
8934991,71480485918,16.0,31.0,-117.0,0,0.517,704.0,0.0,17
8934992,71480493917,16.0,28.0,-122.0,0,0.516,704.0,0.0,17
8934993,71480501920,26.0,27.0,-126.0,0,0.513,704.0,0.0,17
8934994,71480509918,21.0,26.0,-129.0,0,0.51,704.0,0.0,17
8934995,71480517921,31.0,27.0,-130.0,0,0.496,704.0,0.0,17
8934996,71480525919,38.0,30.0,-130.0,1,0.489,704.0,0.0,17
8934997,71480533920,44.0,33.0,-129.0,0,0.495,704.0,0.0,17
8934998,71480541920,62.0,40.0,-126.0,0,0.506,704.0,0.0,17
8934999,71480549920,64.0,46.0,-122.0,0,0.508,704.0,0.0,17
8935000,71480557918,82.0,55.0,-116.0,0,0.516,704.0,0.0,17
8935001,71480565920,93.0,64.0,-109.0,0,0.514,704.0,0.0,17
8935002,71480573920,96.0,72.0,-102.0,0,0.504,704.0,0.0,17
8935003,71480581916,114.0,82.0,-94.0,0,0.502,704.0,0.0,17
8935004,71480589917,113.0,89.0,-85.0,0,0.497,704.0,0.0,17
8935005,71480597917,130.0,99.0,-77.0,0,0.478,704.0,0.0,17
8935006,71480605919,134.0,108.0,-68.0,0,0.474,704.0,0.0,17
8935007,71480613916,140.0,116.0,-59.0,0,0.461,704.0,0.0,17
8935008,71480621920,154.0,125.0,-51.0,0,0.443,704.0,0.0,17
8935009,71480629920,153.0,132.0,-42.0,0,0.439,704.0,0.0,17
8935010,71480637920,166.0,140.0,-34.0,0,0.42,704.0,0.0,17
8935011,71480645921,171.0,148.0,-26.0,0,0.41,704.0,0.0,17
8935012,71480653920,172.0,153.0,-18.0,0,0.4,704.0,0.0,17
8935013,71480661920,189.0,162.0,-11.0,0,0.383,704.0,0.0,17
8935014,71480669917,187.0,168.0,-3.0,0,0.382,704.0,0.0,17
8935015,71480677921,197.0,175.0,4.0,0,0.366,704.0,0.0,17
8935016,71480685917,203.0,182.0,11.0,0,0.373,704.0,0.0,17
8935017,71480693917,204.0,187.0,17.0,0,0.372,704.0,0.0,17
8935018,71480701916,215.0,194.0,24.0,0,0.389,704.0,0.0,17
8935019,71480709921,208.0,197.0,29.0,0,0.379,704.0,0.0,17
8935020,71480717916,220.0,203.0,35.0,0,0.394,704.0,0.0,17
8935021,71480725921,220.0,207.0,40.0,0,0.393,704.0,0.0,17
8935022,71480733920,225.0,211.0,44.0,0,0.39,704.0,0.0,17
8935023,71480741918,238.0,218.0,49.0,0,0.405,704.0,0.0,17
8935024,71480749919,237.0,222.0,54.0,0,0.412,704.0,0.0,17
8935025,71480757918,252.0,230.0,60.0,0,0.429,704.0,0.0,17
8935026,71480765920,258.0,237.0,65.0,0,0.428,704.0,0.0,17
8935027,71480773918,259.0,242.0,71.0,0,0.445,704.0,0.0,17
8935028,71480781920,267.0,248.0,76.0,0,0.445,704.0,0.0,17
8935029,71480789919,252.0,249.0,80.0,0,0.443,704.0,0.0,17
8935030,71480797919,253.0,250.0,83.0,0,0.44,704.0,0.0,17
8935031,71480805918,240.0,248.0,84.0,0,0.427,704.0,0.0,17
8935032,71480813920,228.0,243.0,84.0,1,0.421,704.0,0.0,17
8935033,71480821920,223.0,238.0,82.0,0,0.435,704.0,0.0,17
8935034,71480829918,199.0,229.0,77.0,0,0.454,704.0,0.0,17
8935035,71480837916,193.0,220.0,72.0,0,0.448,704.0,0.0,17
8935036,71480845921,177.0,210.0,65.0,0,0.457,704.0,0.0,17
8935037,71480853917,162.0,198.0,56.0,0,0.463,704.0,0.0,17
8935038,71480861917,159.0,189.0,48.0,0,0.444,704.0,0.0,17
8935039,71480869918,145.0,178.0,38.0,0,0.448,704.0,0.0,17
8935040,71480877921,156.0,173.0,30.0,0,0.421,704.0,0.0,17
8935041,71480885921,160.0,170.0,23.0,0,0.404,704.0,0.0,17
8935042,71480893920,168.0,169.0,18.0,0,0.382,704.0,0.0,17
8935043,71480901920,192.0,175.0,17.0,0,0.349,704.0,0.0,17
8935044,71480909920,192.0,179.0,16.0,0,0.348,704.0,0.0,17
8935045,71480917920,215.0,188.0,19.0,1,0.369,704.0,0.0,17
8935046,71480925921,226.0,197.0,23.0,0,0.384,704.0,0.0,17
8935047,71480933920,231.0,205.0,28.0,0,0.4,704.0,0.0,17
8935048,71480941920,243.0,214.0,34.0,0,0.418,704.0,0.0,17
8935049,71480949921,235.0,219.0,40.0,0,0.428,704.0,0.0,17
8935050,71480957918,240.0,224.0,46.0,0,0.437,704.0,0.0,17
8935051,71480965920,233.0,226.0,50.0,0,0.425,704.0,0.0,17
8935052,71480973920,226.0,226.0,53.0,0,0.421,704.0,0.0,17
8935053,71480981919,225.0,226.0,55.0,0,0.415,704.0,0.0,17
8935054,71480989916,206.0,221.0,55.0,1,0.398,704.0,0.0,17
8935055,71480997917,204.0,217.0,54.0,0,0.404,704.0,0.0,17
8935056,71481005920,192.0,211.0,51.0,0,0.416,704.0,0.0,17
8935057,71481013920,177.0,203.0,46.0,0,0.426,704.0,0.0,17
8935058,71481021920,177.0,196.0,41.0,0,0.418,704.0,0.0,17
8935059,71481029921,161.0,188.0,35.0,0,0.417,704.0,0.0,17
8935060,71481037917,165.0,182.0,29.0,0,0.408,704.0,0.0,17
8935061,71481045918,159.0,177.0,23.0,0,0.399,704.0,0.0,17
8935062,71481053920,157.0,172.0,18.0,0,0.382,704.0,0.0,17
8935063,71481061918,164.0,170.0,13.0,0,0.374,704.0,0.0,17
8935064,71481069918,155.0,166.0,9.0,0,0.359,704.0,0.0,17
8935065,71481077918,160.0,165.0,6.0,0,0.346,704.0,0.0,17
8935066,71481085921,156.0,163.0,3.0,0,0.341,704.0,0.0,17
8935067,71481093920,145.0,158.0,-1.0,0,0.348,704.0,0.0,17
8935068,71481101917,152.0,157.0,-4.0,0,0.343,704.0,0.0,17
8935069,71481109920,139.0,153.0,-7.0,0,0.348,704.0,0.0,17
8935070,71481117920,142.0,150.0,-10.0,0,0.353,704.0,0.0,17
8935071,71481125920,134.0,146.0,-13.0,0,0.357,704.0,0.0,17
8935072,71481133916,126.0,141.0,-17.0,0,0.372,704.0,0.0,17
8935073,71481141919,131.0,139.0,-20.0,0,0.368,704.0,0.0,17
8935074,71481149918,114.0,133.0,-24.0,0,0.383,704.0,0.0,17
8935075,71481157921,116.0,129.0,-28.0,0,0.39,704.0,0.0,17
8935076,71481165917,111.0,124.0,-32.0,0,0.396,704.0,0.0,17
8935077,71481173920,96.0,118.0,-37.0,0,0.413,704.0,0.0,17
8935078,71481181920,88.0,110.0,-42.0,0,0.421,704.0,0.0,17
8935079,71481189920,68.0,100.0,-49.0,0,0.451,704.0,0.0,17
8935080,71481197918,62.0,91.0,-56.0,0,0.462,704.0,0.0,17
8935081,71481205920,52.0,81.0,-63.0,0,0.474,704.0,0.0,17
8935082,71481213921,39.0,71.0,-72.0,0,0.506,704.0,0.0,17
8935083,71481221920,51.0,66.0,-79.0,0,0.5,704.0,0.0,17
8935084,71481229921,43.0,61.0,-85.0,0,0.501,704.0,0.0,17
8935085,71481237920,55.0,59.0,-90.0,0,0.5,704.0,0.0,17
8935086,71481245920,61.0,60.0,-93.0,0,0.487,704.0,0.0,17
8935087,71481253920,65.0,61.0,-95.0,0,0.482,704.0,0.0,17
8935088,71481261920,89.0,68.0,-94.0,1,0.472,704.0,0.0,17
8935089,71481269921,92.0,74.0,-92.0,0,0.478,704.0,0.0,17
8935090,71481277920,108.0,82.0,-87.0,0,0.496,704.0,0.0,17
8935091,71481285920,120.0,91.0,-81.0,0,0.496,704.0,0.0,17
8935092,71481293920,132.0,101.0,-74.0,0,0.494,704.0,0.0,17
8935093,71481301919,150.0,113.0,-66.0,0,0.491,704.0,0.0,17
8935094,71481309920,151.0,122.0,-57.0,0,0.486,704.0,0.0,17
8935095,71481317920,164.0,132.0,-48.0,0,0.472,704.0,0.0,17
8935096,71481325920,166.0,140.0,-39.0,0,0.458,704.0,0.0,17
8935097,71481333920,166.0,147.0,-31.0,0,0.437,704.0,0.0,17
8935098,71481341921,172.0,153.0,-23.0,0,0.425,704.0,0.0,17
8935099,71481349921,161.0,155.0,-17.0,0,0.398,704.0,0.0,17
8935100,71481357919,164.0,157.0,-12.0,0,0.382,704.0,0.0,17
8935101,71481365920,156.0,157.0,-9.0,0,0.361,704.0,0.0,17
8935102,71481373918,153.0,156.0,-6.0,0,0.357,704.0,0.0,17
8935103,71481381920,154.0,155.0,-5.0,0,0.339,704.0,0.0,17
8935104,71481389917,143.0,152.0,-5.0,1,0.331,704.0,0.0,17
8935105,71481397921,144.0,150.0,-5.0,0,0.331,704.0,0.0,17
8935106,71481405920,138.0,147.0,-6.0,0,0.34,704.0,0.0,17
8935107,71481413920,127.0,142.0,-9.0,0,0.362,704.0,0.0,17
8935108,71481421917,132.0,140.0,-11.0,0,0.356,704.0,0.0,17
8935109,71481429916,119.0,135.0,-14.0,0,0.369,704.0,0.0,17
8935110,71481437920,118.0,131.0,-17.0,0,0.373,704.0,0.0,17
8935111,71481445916,111.0,126.0,-21.0,0,0.388,704.0,0.0,17
8935112,71481453918,102.0,120.0,-25.0,0,0.393,704.0,0.0,17
8935113,71481461916,104.0,116.0,-29.0,0,0.399,704.0,0.0,17
8935114,71481469920,91.0,110.0,-34.0,0,0.415,704.0,0.0,17
8935115,71481477920,90.0,105.0,-38.0,0,0.411,704.0,0.0,17
8935116,71481485920,80.0,99.0,-43.0,0,0.428,704.0,0.0,17
8935117,71481493916,68.0,92.0,-49.0,0,0.447,704.0,0.0,17
8935118,71481501920,62.0,84.0,-54.0,0,0.444,704.0,0.0,17
8935119,71481509916,38.0,73.0,-62.0,0,0.487,704.0,0.0,17
8935120,71481517920,26.0,62.0,-70.0,0,0.5,704.0,0.0,17
8935121,71481525920,5.0,48.0,-80.0,0,0.536,704.0,0.0,17
8935122,71481533921,0.0,36.0,-90.0,0,0.553,704.0,0.0,19
8935123,71481541920,0.0,28.0,-99.0,0,0.558,704.0,0.0,19
8935124,71481549920,0.0,21.0,-107.0,0,0.561,704.0,0.0,19
8935125,71481557916,0.0,16.0,-115.0,0,0.575,704.0,0.0,19
8935126,71481565920,0.0,12.0,-121.0,0,0.564,704.0,0.0,19
8935127,71481573921,0.0,9.0,-125.0,0,0.55,704.0,0.0,19
8935128,71481581921,0.0,7.0,-129.0,0,0.556,704.0,0.0,19
8935129,71481589920,0.0,5.0,-132.0,0,0.551,704.0,0.0,19
8935130,71481597920,0.0,4.0,-134.0,0,0.543,704.0,0.0,19
8935131,71481605920,0.0,3.0,-136.0,0,0.545,704.0,0.0,19
8935132,71481613920,0.0,2.0,-137.0,0,0.536,704.0,0.0,19
8935133,71481621920,28.0,9.0,-136.0,1,0.533,704.0,0.0,17
8935134,71481629918,44.0,17.0,-132.0,0,0.556,704.0,0.0,17
8935135,71481637919,80.0,32.0,-125.0,0,0.575,704.0,0.0,17
8935136,71481645917,107.0,50.0,-115.0,0,0.589,704.0,0.0,17
8935137,71481653920,132.0,70.0,-101.0,0,0.604,704.0,0.0,17
8935138,71481661918,167.0,94.0,-85.0,0,0.592,704.0,0.0,17
8935139,71481669921,182.0,115.0,-67.0,0,0.576,704.0,0.0,17
8935140,71481677918,210.0,138.0,-48.0,0,0.549,704.0,0.0,17
8935141,71481685920,226.0,159.0,-28.0,0,0.523,704.0,0.0,17
8935142,71481693920,239.0,179.0,-9.0,0,0.508,704.0,0.0,17
8935143,71481701920,254.0,197.0,10.0,0,0.539,704.0,0.0,17
8935144,71481709916,247.0,209.0,27.0,0,0.552,704.0,0.0,17
8935145,71481717921,259.0,221.0,43.0,0,0.572,704.0,0.0,17
8935146,71481725920,255.0,229.0,56.0,0,0.567,704.0,0.0,17
8935147,71481733916,249.0,234.0,67.0,0,0.567,704.0,0.0,17
8935148,71481741920,248.0,238.0,75.0,0,0.549,704.0,0.0,17
8935149,71481749920,230.0,236.0,80.0,0,0.525,704.0,0.0,17
8935150,71481757918,232.0,235.0,84.0,0,0.521,704.0,0.0,17
8935151,71481765917,220.0,231.0,85.0,0,0.491,704.0,0.0,17
8935152,71481773918,203.0,224.0,84.0,1,0.489,704.0,0.0,17
8935153,71481781920,198.0,218.0,81.0,0,0.502,704.0,0.0,17
8935154,71481789920,174.0,207.0,75.0,0,0.521,704.0,0.0,17
8935155,71481797920,169.0,198.0,69.0,0,0.509,704.0,0.0,17
8935156,71481805918,154.0,187.0,61.0,0,0.514,704.0,0.0,17
8935157,71481813921,139.0,176.0,52.0,0,0.507,704.0,0.0,17
8935158,71481821920,136.0,166.0,43.0,0,0.489,704.0,0.0,17
8935159,71481829921,111.0,153.0,33.0,0,0.481,704.0,0.0,17
8935160,71481837920,115.0,144.0,23.0,0,0.462,704.0,0.0,17
8935161,71481845921,107.0,135.0,13.0,0,0.444,704.0,0.0,17
8935162,71481853920,99.0,126.0,4.0,0,0.417,704.0,0.0,17
8935163,71481861920,105.0,121.0,-4.0,0,0.393,704.0,0.0,17
8935164,71481869920,93.0,114.0,-12.0,0,0.406,704.0,0.0,17
8935165,71481877920,103.0,111.0,-18.0,0,0.395,704.0,0.0,17
8935166,71481885920,107.0,110.0,-23.0,0,0.394,704.0,0.0,17
8935167,71481893920,108.0,110.0,-26.0,0,0.379,704.0,0.0,17
8935168,71481901917,121.0,113.0,-28.0,0,0.373,704.0,0.0,17
8935169,71481909920,116.0,113.0,-29.0,0,0.366,704.0,0.0,17
8935170,71481917920,139.0,120.0,-28.0,1,0.364,704.0,0.0,17
8935171,71481925919,141.0,125.0,-25.0,0,0.379,704.0,0.0,17
8935172,71481933920,147.0,130.0,-22.0,0,0.374,704.0,0.0,17
8935173,71481941920,162.0,138.0,-17.0,0,0.386,704.0,0.0,17
8935174,71481949920,159.0,143.0,-13.0,0,0.369,704.0,0.0,17
8935175,71481957920,172.0,150.0,-7.0,0,0.381,704.0,0.0,17
8935176,71481965917,173.0,156.0,-2.0,0,0.362,704.0,0.0,17
8935177,71481973919,173.0,160.0,3.0,0,0.368,704.0,0.0,17
8935178,71481981920,187.0,166.0,9.0,0,0.388,704.0,0.0,17
8935179,71481989920,179.0,169.0,13.0,0,0.374,704.0,0.0,17
8935180,71481997917,185.0,173.0,18.0,0,0.393,704.0,0.0,17
8935181,71482005920,176.0,174.0,21.0,0,0.377,704.0,0.0,17
8935182,71482013918,169.0,173.0,23.0,0,0.37,704.0,0.0,17
8935183,71482021920,164.0,171.0,24.0,0,0.362,704.0,0.0,17
8935184,71482029920,144.0,164.0,22.0,1,0.368,704.0,0.0,17
8935185,71482037920,132.0,156.0,19.0,0,0.373,704.0,0.0,17
8935186,71482045917,110.0,145.0,14.0,0,0.385,704.0,0.0,17
8935187,71482053920,86.0,131.0,6.0,0,0.403,704.0,0.0,17
8935188,71482061920,78.0,118.0,-4.0,0,0.422,704.0,0.0,17
8935189,71482069921,49.0,101.0,-15.0,0,0.451,704.0,0.0,17
8935190,71482077918,36.0,85.0,-28.0,0,0.494,704.0,0.0,17
8935191,71482085920,19.0,69.0,-41.0,0,0.518,704.0,0.0,17
8935192,71482093919,2.0,53.0,-55.0,0,0.554,704.0,0.0,17
8935193,71482101920,1.0,40.0,-68.0,0,0.569,704.0,0.0,17
8935194,71482109920,0.0,31.0,-81.0,0,0.595,704.0,0.0,19
8935195,71482117916,0.0,23.0,-91.0,0,0.583,704.0,0.0,19
8935196,71482125920,0.0,18.0,-100.0,0,0.589,704.0,0.0,19
8935197,71482133916,0.0,13.0,-108.0,0,0.593,704.0,0.0,19
8935198,71482141916,0.0,10.0,-114.0,0,0.582,704.0,0.0,19
8935199,71482149920,0.0,8.0,-118.0,0,0.567,704.0,0.0,19
8935200,71482157916,0.0,6.0,-122.0,0,0.574,704.0,0.0,19
8935201,71482165919,0.0,4.0,-125.0,0,0.569,704.0,0.0,19
8935202,71482173920,0.0,3.0,-127.0,0,0.563,704.0,0.0,19
8935203,71482181921,5.0,4.0,-128.0,0,0.555,704.0,0.0,17
8935204,71482189918,0.0,3.0,-128.0,1,0.545,704.0,0.0,19
8935205,71482197920,4.0,3.0,-129.0,0,0.558,704.0,0.0,17
8935206,71482205921,4.0,3.0,-129.0,1,0.548,704.0,0.0,17
8935207,71482213920,5.0,4.0,-128.0,0,0.557,704.0,0.0,17
8935208,71482221920,14.0,6.0,-127.0,0,0.555,704.0,0.0,17
8935209,71482229920,3.0,5.0,-126.0,0,0.553,704.0,0.0,17
8935210,71482237920,8.0,6.0,-125.0,0,0.551,704.0,0.0,17
8935211,71482245919,6.0,6.0,-124.0,0,0.548,704.0,0.0,17
8935212,71482253920,8.0,7.0,-123.0,0,0.545,704.0,0.0,17
8935213,71482261920,24.0,11.0,-121.0,0,0.551,704.0,0.0,17
8935214,71482269920,24.0,14.0,-118.0,0,0.556,704.0,0.0,17
8935215,71482277920,44.0,21.0,-114.0,0,0.558,704.0,0.0,17
8935216,71482285920,59.0,30.0,-108.0,0,0.569,704.0,0.0,17
8935217,71482293921,74.0,41.0,-101.0,0,0.565,704.0,0.0,17
8935218,71482301917,103.0,56.0,-91.0,0,0.578,704.0,0.0,17
8935219,71482309916,115.0,70.0,-80.0,0,0.564,704.0,0.0,17
8935220,71482317920,145.0,88.0,-67.0,0,0.555,704.0,0.0,17
8935221,71482325920,173.0,109.0,-51.0,0,0.546,704.0,0.0,17
8935222,71482333920,200.0,131.0,-34.0,0,0.517,704.0,0.0,17
8935223,71482341920,244.0,158.0,-14.0,0,0.558,704.0,0.0,17
8935224,71482349920,279.0,188.0,8.0,0,0.618,704.0,0.0,17
8935225,71482357920,330.0,222.0,34.0,0,0.695,704.0,0.0,17
8935226,71482365920,374.0,259.0,63.0,0,0.769,704.0,0.0,17
8935227,71482373920,414.0,297.0,94.0,0,0.833,704.0,0.0,17
8935228,71482381920,461.0,336.0,127.0,0,0.886,704.0,0.0,17
8935229,71482389920,488.0,373.0,160.0,0,0.921,704.0,0.0,17
8935230,71482397917,524.0,410.0,194.0,0,0.946,704.0,0.0,17
8935231,71482405921,543.0,442.0,227.0,0,0.958,704.0,0.0,17
8935232,71482413920,556.0,470.0,258.0,0,0.961,704.0,0.0,17
8935233,71482421920,572.0,494.0,286.0,0,0.956,704.0,0.0,17
8935234,71482429920,574.0,514.0,311.0,0,0.947,704.0,0.0,17
8935235,71482437920,585.0,531.0,334.0,0,0.938,704.0,0.0,17
8935236,71482445916,584.0,544.0,352.0,0,0.906,704.0,0.0,17
8935237,71482453920,580.0,553.0,367.0,0,0.882,704.0,0.0,17
8935238,71482461921,584.0,560.0,380.0,0,0.863,704.0,0.0,17
8935239,71482469920,572.0,563.0,388.0,0,0.81,704.0,0.0,17
8935240,71482477921,575.0,566.0,395.0,0,0.799,704.0,0.0,17
8935241,71482485919,564.0,565.0,398.0,0,0.755,704.0,0.0,17
8935242,71482493920,552.0,562.0,399.0,0,0.733,704.0,0.0,17
8935243,71482501920,547.0,559.0,398.0,1,0.732,704.0,0.0,17
8935244,71482509920,525.0,550.0,394.0,0,0.762,704.0,0.0,17
8935245,71482517917,519.0,543.0,388.0,0,0.782,704.0,0.0,17
8935246,71482525920,500.0,532.0,380.0,0,0.802,704.0,0.0,17
8935247,71482533920,477.0,519.0,370.0,0,0.82,704.0,0.0,17
8935248,71482541920,469.0,507.0,359.0,0,0.826,704.0,0.0,17
8935249,71482549920,440.0,491.0,346.0,0,0.841,704.0,0.0,17
8935250,71482557920,428.0,475.0,332.0,0,0.845,704.0,0.0,17
8935251,71482565918,402.0,458.0,316.0,0,0.854,704.0,0.0,17
8935252,71482573920,383.0,440.0,299.0,0,0.853,704.0,0.0,17
8935253,71482581920,372.0,423.0,281.0,0,0.848,704.0,0.0,17
8935254,71482589920,344.0,404.0,263.0,0,0.834,704.0,0.0,17
8935255,71482597916,335.0,387.0,245.0,0,0.817,704.0,0.0,17
8935256,71482605920,317.0,370.0,227.0,0,0.799,704.0,0.0,17
8935257,71482613920,300.0,353.0,209.0,0,0.778,704.0,0.0,17
8935258,71482621917,292.0,338.0,191.0,0,0.754,704.0,0.0,17
8935259,71482629920,274.0,323.0,174.0,0,0.722,704.0,0.0,17
8935260,71482637920,273.0,311.0,158.0,0,0.69,704.0,0.0,17
8935261,71482645920,264.0,299.0,143.0,0,0.657,704.0,0.0,17
8935262,71482653920,253.0,288.0,129.0,0,0.625,704.0,0.0,17
8935263,71482661916,255.0,280.0,117.0,0,0.586,704.0,0.0,17
8935264,71482669920,241.0,271.0,105.0,0,0.565,704.0,0.0,17
8935265,71482677920,245.0,264.0,95.0,0,0.528,704.0,0.0,17
8935266,71482685917,238.0,258.0,85.0,0,0.51,704.0,0.0,17
8935267,71482693918,234.0,252.0,77.0,0,0.476,704.0,0.0,17
8935268,71482701920,236.0,248.0,70.0,0,0.453,704.0,0.0,17
8935269,71482709920,224.0,242.0,63.0,0,0.441,704.0,0.0,17
8935270,71482717918,228.0,239.0,57.0,0,0.421,704.0,0.0,17
8935271,71482725920,220.0,234.0,51.0,0,0.411,704.0,0.0,17
8935272,71482733920,216.0,230.0,46.0,0,0.392,704.0,0.0,17
8935273,71482741917,226.0,229.0,41.0,0,0.384,704.0,0.0,17
8935274,71482749917,219.0,227.0,38.0,0,0.359,704.0,0.0,17
8935275,71482757920,228.0,227.0,35.0,0,0.355,704.0,0.0,17
8935276,71482765920,224.0,226.0,33.0,0,0.342,704.0,0.0,17
8935277,71482773920,222.0,225.0,31.0,0,0.339,704.0,0.0,17
8935278,71482781920,236.0,228.0,31.0,1,0.32,704.0,0.0,17
8935279,71482789917,224.0,227.0,30.0,0,0.328,704.0,0.0,17
8935280,71482797920,228.0,227.0,29.0,0,0.327,704.0,0.0,17
8935281,71482805917,226.0,227.0,29.0,1,0.317,704.0,0.0,17
8935282,71482813918,224.0,226.0,28.0,0,0.326,704.0,0.0,17
8935283,71482821920,230.0,227.0,28.0,1,0.317,704.0,0.0,17
8935284,71482829920,219.0,225.0,27.0,0,0.326,704.0,0.0,17
8935285,71482837920,228.0,226.0,27.0,1,0.317,704.0,0.0,17
8935286,71482845918,223.0,225.0,26.0,0,0.327,704.0,0.0,17
8935287,71482853920,219.0,224.0,25.0,0,0.326,704.0,0.0,17
8935288,71482861920,222.0,223.0,25.0,1,0.317,704.0,0.0,17
8935289,71482869920,211.0,220.0,23.0,0,0.336,704.0,0.0,17
8935290,71482877920,217.0,219.0,22.0,0,0.325,704.0,0.0,17
8935291,71482885920,212.0,218.0,20.0,0,0.334,704.0,0.0,17
8935292,71482893916,205.0,215.0,18.0,0,0.333,704.0,0.0,17
8935293,71482901920,212.0,214.0,17.0,0,0.323,704.0,0.0,17
8935294,71482909920,201.0,211.0,15.0,0,0.336,704.0,0.0,17
8935295,71482917917,205.0,209.0,13.0,0,0.338,704.0,0.0,17
8935296,71482925917,196.0,206.0,11.0,0,0.341,704.0,0.0,17
8935297,71482933918,187.0,202.0,8.0,0,0.356,704.0,0.0,17
8935298,71482941920,190.0,199.0,5.0,0,0.36,704.0,0.0,17
8935299,71482949920,177.0,193.0,1.0,0,0.378,704.0,0.0,17
8935300,71482957920,181.0,190.0,-2.0,0,0.371,704.0,0.0,17
8935301,71482965920,176.0,187.0,-6.0,0,0.389,704.0,0.0,17
8935302,71482973917,166.0,182.0,-9.0,0,0.383,704.0,0.0,17
8935303,71482981920,165.0,178.0,-13.0,0,0.402,704.0,0.0,17
8935304,71482989918,148.0,171.0,-18.0,0,0.423,704.0,0.0,17
8935305,71482997921,142.0,164.0,-23.0,0,0.432,704.0,0.0,17
8935306,71483005920,126.0,155.0,-30.0,0,0.47,704.0,0.0,17
8935307,71483013919,110.0,144.0,-37.0,0,0.482,704.0,0.0,17
8935308,71483021921,107.0,135.0,-45.0,0,0.51,704.0,0.0,17
8935309,71483029918,91.0,124.0,-53.0,0,0.524,704.0,0.0,17
8935310,71483037918,84.0,114.0,-62.0,0,0.553,704.0,0.0,17
8935311,71483045920,68.0,103.0,-71.0,0,0.569,704.0,0.0,17
8935312,71483053918,54.0,91.0,-81.0,0,0.599,704.0,0.0,17
8935313,71483061918,51.0,82.0,-91.0,0,0.617,704.0,0.0,17
8935314,71483069920,34.0,70.0,-101.0,0,0.634,704.0,0.0,17
8935315,71483077920,37.0,62.0,-110.0,0,0.637,704.0,0.0,17
8935316,71483085917,35.0,55.0,-118.0,0,0.637,704.0,0.0,17
8935317,71483093920,39.0,51.0,-124.0,0,0.621,704.0,0.0,17
8935318,71483101917,58.0,53.0,-128.0,0,0.602,704.0,0.0,17
8935319,71483109920,69.0,57.0,-130.0,0,0.581,704.0,0.0,17
8935320,71483117917,96.0,66.0,-128.0,1,0.578,704.0,0.0,17
8935321,71483125920,121.0,80.0,-123.0,0,0.607,704.0,0.0,17
8935322,71483133920,145.0,95.0,-114.0,0,0.643,704.0,0.0,17
8935323,71483141920,176.0,115.0,-102.0,0,0.658,704.0,0.0,17
8935324,71483149920,189.0,133.0,-89.0,0,0.646,704.0,0.0,17
8935325,71483157920,223.0,155.0,-73.0,0,0.646,704.0,0.0,17
8935326,71483165920,241.0,176.0,-55.0,0,0.629,704.0,0.0,17
8935327,71483173920,259.0,196.0,-37.0,0,0.597,704.0,0.0,17
8935328,71483181917,280.0,216.0,-18.0,0,0.571,704.0,0.0,17
8935329,71483189916,284.0,233.0,0.0,0,0.533,704.0,0.0,17
8935330,71483197918,293.0,247.0,17.0,0,0.502,704.0,0.0,17
8935331,71483205918,292.0,258.0,32.0,0,0.508,704.0,0.0,17
8935332,71483213918,291.0,266.0,45.0,0,0.509,704.0,0.0,17
8935333,71483221918,292.0,272.0,55.0,0,0.493,704.0,0.0,17
8935334,71483229921,273.0,273.0,63.0,0,0.483,704.0,0.0,17
8935335,71483237920,271.0,272.0,68.0,0,0.455,704.0,0.0,17
8935336,71483245921,253.0,268.0,71.0,0,0.436,704.0,0.0,17
8935337,71483253920,232.0,259.0,70.0,1,0.41,704.0,0.0,17
8935338,71483261918,223.0,250.0,66.0,0,0.438,704.0,0.0,17
8935339,71483269917,194.0,237.0,60.0,0,0.452,704.0,0.0,17
8935340,71483277920,180.0,223.0,51.0,0,0.472,704.0,0.0,17
8935341,71483285920,158.0,207.0,41.0,0,0.467,704.0,0.0,17
8935342,71483293920,134.0,189.0,28.0,0,0.479,704.0,0.0,17
8935343,71483301920,120.0,173.0,14.0,0,0.478,704.0,0.0,17
8935344,71483309918,92.0,153.0,-1.0,0,0.51,704.0,0.0,17
8935345,71483317917,82.0,136.0,-17.0,0,0.545,704.0,0.0,17
8935346,71483325920,64.0,118.0,-33.0,0,0.572,704.0,0.0,17
8935347,71483333917,43.0,100.0,-49.0,0,0.6,704.0,0.0,17
8935348,71483341916,40.0,86.0,-65.0,0,0.627,704.0,0.0,17
8935349,71483349920,19.0,69.0,-81.0,0,0.654,704.0,0.0,17
8935350,71483357918,24.0,58.0,-95.0,0,0.658,704.0,0.0,17
8935351,71483365916,18.0,49.0,-108.0,0,0.669,704.0,0.0,17
8935352,71483373920,12.0,40.0,-119.0,0,0.664,704.0,0.0,17
8935353,71483381918,23.0,36.0,-128.0,0,0.654,704.0,0.0,17
8935354,71483389921,21.0,32.0,-135.0,0,0.639,704.0,0.0,17
8935355,71483397917,35.0,33.0,-139.0,0,0.608,704.0,0.0,17
8935356,71483405917,41.0,35.0,-142.0,0,0.599,704.0,0.0,17
8935357,71483413920,49.0,38.0,-142.0,1,0.565,704.0,0.0,17
8935358,71483421916,65.0,45.0,-141.0,0,0.573,704.0,0.0,17
8935359,71483429920,68.0,50.0,-137.0,0,0.6,704.0,0.0,17
8935360,71483437921,84.0,59.0,-133.0,0,0.593,704.0,0.0,17
8935361,71483445921,92.0,67.0,-127.0,0,0.606,704.0,0.0,17
8935362,71483453920,93.0,73.0,-120.0,0,0.606,704.0,0.0,17
8935363,71483461917,108.0,82.0,-113.0,0,0.594,704.0,0.0,17
8935364,71483469920,103.0,87.0,-107.0,0,0.571,704.0,0.0,17
8935365,71483477920,110.0,92.0,-100.0,0,0.57,704.0,0.0,17
8935366,71483485920,109.0,96.0,-94.0,0,0.548,704.0,0.0,17
8935367,71483493921,100.0,97.0,-89.0,0,0.526,704.0,0.0,17
8935368,71483501920,108.0,100.0,-85.0,0,0.507,704.0,0.0,17
8935369,71483509920,98.0,99.0,-82.0,0,0.49,704.0,0.0,17
8935370,71483517920,104.0,101.0,-79.0,0,0.484,704.0,0.0,17
8935371,71483525920,99.0,100.0,-78.0,0,0.459,704.0,0.0,17
8935372,71483533920,93.0,98.0,-76.0,0,0.466,704.0,0.0,17
8935373,71483541920,102.0,99.0,-75.0,0,0.452,704.0,0.0,17
8935374,71483549920,90.0,97.0,-75.0,1,0.441,704.0,0.0,17
8935375,71483557920,96.0,97.0,-75.0,0,0.44,704.0,0.0,17
8935376,71483565920,91.0,95.0,-75.0,0,0.439,704.0,0.0,17
8935377,71483573920,89.0,94.0,-75.0,0,0.439,704.0,0.0,17
8935378,71483581920,99.0,95.0,-75.0,0,0.438,704.0,0.0,17
8935379,71483589917,91.0,94.0,-75.0,0,0.437,704.0,0.0,17
8935380,71483597919,100.0,96.0,-74.0,0,0.446,704.0,0.0,17
8935381,71483605917,100.0,97.0,-73.0,0,0.443,704.0,0.0,17
8935382,71483613920,99.0,97.0,-73.0,1,0.432,704.0,0.0,17
8935383,71483621917,108.0,100.0,-71.0,0,0.45,704.0,0.0,17
8935384,71483629918,95.0,99.0,-70.0,0,0.436,704.0,0.0,17
8935385,71483637920,104.0,100.0,-69.0,0,0.434,704.0,0.0,17
8935386,71483645920,108.0,102.0,-68.0,0,0.432,704.0,0.0,17
8935387,71483653920,106.0,103.0,-66.0,0,0.439,704.0,0.0,17
8935388,71483661917,111.0,105.0,-64.0,0,0.435,704.0,0.0,17
8935389,71483669918,99.0,103.0,-63.0,0,0.422,704.0,0.0,17
8935390,71483677917,108.0,105.0,-62.0,0,0.42,704.0,0.0,17
8935391,71483685920,105.0,105.0,-61.0,0,0.418,704.0,0.0,17
8935392,71483693920,96.0,103.0,-61.0,1,0.407,704.0,0.0,17
8935393,71483701920,103.0,103.0,-61.0,0,0.407,704.0,0.0,17
8935394,71483709916,89.0,99.0,-62.0,0,0.419,704.0,0.0,17
8935395,71483717920,92.0,98.0,-62.0,1,0.408,704.0,0.0,17
8935396,71483725918,87.0,95.0,-64.0,0,0.433,704.0,0.0,17
8935397,71483733920,77.0,91.0,-66.0,0,0.436,704.0,0.0,17
8935398,71483741917,81.0,88.0,-68.0,0,0.44,704.0,0.0,17
8935399,71483749920,71.0,84.0,-70.0,0,0.443,704.0,0.0,17
8935400,71483757920,78.0,83.0,-72.0,0,0.446,704.0,0.0,17
8935401,71483765919,77.0,81.0,-74.0,0,0.449,704.0,0.0,17
8935402,71483773920,76.0,80.0,-75.0,0,0.44,704.0,0.0,17
8935403,71483781918,89.0,82.0,-75.0,1,0.429,704.0,0.0,17
8935404,71483789920,82.0,82.0,-75.0,0,0.429,704.0,0.0,17
8935405,71483797920,104.0,87.0,-74.0,0,0.438,704.0,0.0,17
8935406,71483805917,116.0,94.0,-70.0,0,0.466,704.0,0.0,17
8935407,71483813921,138.0,105.0,-65.0,0,0.469,704.0,0.0,17
8935408,71483821921,176.0,122.0,-56.0,0,0.502,704.0,0.0,17
8935409,71483829920,203.0,142.0,-44.0,0,0.515,704.0,0.0,17
8935410,71483837917,251.0,168.0,-28.0,0,0.528,704.0,0.0,17
8935411,71483845920,291.0,198.0,-8.0,0,0.526,704.0,0.0,17
8935412,71483853918,332.0,230.0,15.0,0,0.558,704.0,0.0,17
8935413,71483861918,378.0,266.0,42.0,0,0.617,704.0,0.0,17
8935414,71483869920,410.0,301.0,71.0,0,0.671,704.0,0.0,17
8935415,71483877920,450.0,337.0,101.0,0,0.723,704.0,0.0,17
8935416,71483885920,476.0,371.0,132.0,0,0.774,704.0,0.0,17
8935417,71483893920,495.0,401.0,162.0,0,0.812,704.0,0.0,17
8935418,71483901916,522.0,430.0,192.0,0,0.847,704.0,0.0,17
8935419,71483909920,527.0,454.0,219.0,0,0.863,704.0,0.0,17
8935420,71483917917,538.0,474.0,244.0,0,0.873,704.0,0.0,17
8935421,71483925920,539.0,490.0,265.0,0,0.864,704.0,0.0,17
8935422,71483933920,528.0,499.0,283.0,0,0.852,704.0,0.0,17
8935423,71483941920,524.0,505.0,296.0,0,0.814,704.0,0.0,17
8935424,71483949920,495.0,503.0,305.0,0,0.776,704.0,0.0,17
8935425,71483957920,481.0,497.0,309.0,0,0.723,704.0,0.0,17
8935426,71483965916,454.0,487.0,308.0,1,0.69,704.0,0.0,17
8935427,71483973918,422.0,471.0,302.0,0,0.737,704.0,0.0,17
8935428,71483981920,398.0,453.0,292.0,0,0.772,704.0,0.0,17
8935429,71483989920,357.0,430.0,278.0,0,0.801,704.0,0.0,17
8935430,71483997916,332.0,406.0,261.0,0,0.812,704.0,0.0,17
8935431,71484005917,294.0,379.0,241.0,0,0.815,704.0,0.0,17
8935432,71484013920,254.0,349.0,217.0,0,0.812,704.0,0.0,17
8935433,71484021920,230.0,320.0,192.0,0,0.786,704.0,0.0,17
8935434,71484029920,188.0,288.0,165.0,0,0.758,704.0,0.0,17
8935435,71484037920,165.0,258.0,136.0,0,0.722,704.0,0.0,17
8935436,71484045921,138.0,229.0,108.0,0,0.673,704.0,0.0,17
8935437,71484053920,111.0,200.0,79.0,0,0.631,704.0,0.0,17
8935438,71484061920,99.0,176.0,52.0,0,0.581,704.0,0.0,17
8935439,71484069920,74.0,151.0,25.0,0,0.542,704.0,0.0,17
8935440,71484077918,73.0,132.0,1.0,0,0.539,704.0,0.0,17
8935441,71484085920,63.0,115.0,-21.0,0,0.559,704.0,0.0,17
8935442,71484093920,56.0,101.0,-41.0,0,0.576,704.0,0.0,17
8935443,71484101918,60.0,91.0,-57.0,0,0.57,704.0,0.0,17
8935444,71484109920,54.0,82.0,-72.0,0,0.585,704.0,0.0,17
8935445,71484117920,65.0,78.0,-83.0,0,0.566,704.0,0.0,17
8935446,71484125916,73.0,77.0,-91.0,0,0.549,704.0,0.0,17
8935447,71484133917,79.0,77.0,-96.0,0,0.528,704.0,0.0,17
8935448,71484141917,92.0,81.0,-99.0,0,0.514,704.0,0.0,17
8935449,71484149917,96.0,85.0,-100.0,0,0.498,704.0,0.0,17
8935450,71484157920,113.0,91.0,-98.0,1,0.504,704.0,0.0,17
8935451,71484165920,127.0,100.0,-94.0,0,0.517,704.0,0.0,17
8935452,71484173920,137.0,109.0,-89.0,0,0.519,704.0,0.0,17
8935453,71484181921,156.0,120.0,-81.0,0,0.536,704.0,0.0,17
8935454,71484189917,162.0,130.0,-73.0,0,0.524,704.0,0.0,17
8935455,71484197919,180.0,142.0,-64.0,0,0.52,704.0,0.0,17
8935456,71484205920,190.0,154.0,-54.0,0,0.515,704.0,0.0,17
8935457,71484213916,200.0,165.0,-44.0,0,0.499,704.0,0.0,17
8935458,71484221920,214.0,177.0,-33.0,0,0.492,704.0,0.0,17
8935459,71484229920,217.0,187.0,-22.0,0,0.476,704.0,0.0,17
8935460,71484237921,231.0,197.0,-12.0,0,0.452,704.0,0.0,17
8935461,71484245918,239.0,208.0,-1.0,0,0.446,704.0,0.0,17
8935462,71484253920,240.0,215.0,8.0,0,0.415,704.0,0.0,17
8935463,71484261920,251.0,224.0,17.0,0,0.403,704.0,0.0,17
8935464,71484269921,246.0,229.0,25.0,0,0.393,704.0,0.0,17
8935465,71484277920,258.0,236.0,33.0,0,0.404,704.0,0.0,17
8935466,71484285920,253.0,240.0,40.0,0,0.405,704.0,0.0,17
8935467,71484293919,251.0,243.0,45.0,0,0.392,704.0,0.0,17
8935468,71484301917,259.0,247.0,50.0,0,0.4,704.0,0.0,17
8935469,71484309921,245.0,246.0,53.0,0,0.385,704.0,0.0,17
8935470,71484317920,252.0,248.0,55.0,0,0.378,704.0,0.0,17
8935471,71484325920,243.0,247.0,57.0,0,0.382,704.0,0.0,17
8935472,71484333918,236.0,244.0,57.0,1,0.364,704.0,0.0,17
8935473,71484341920,240.0,243.0,57.0,0,0.364,704.0,0.0,17
8935474,71484349920,224.0,238.0,55.0,0,0.379,704.0,0.0,17
8935475,71484357917,226.0,235.0,53.0,0,0.376,704.0,0.0,17
8935476,71484365921,212.0,230.0,50.0,0,0.381,704.0,0.0,17
8935477,71484373920,200.0,223.0,45.0,0,0.393,704.0,0.0,17
8935478,71484381920,203.0,218.0,41.0,0,0.378,704.0,0.0,17
8935479,71484389920,186.0,210.0,35.0,0,0.389,704.0,0.0,17
8935480,71484397917,188.0,205.0,30.0,0,0.372,704.0,0.0,17
8935481,71484405921,179.0,198.0,24.0,0,0.374,704.0,0.0,17
8935482,71484413916,168.0,191.0,18.0,0,0.372,704.0,0.0,17
8935483,71484421920,169.0,186.0,12.0,0,0.38,704.0,0.0,17
8935484,71484429921,154.0,178.0,5.0,0,0.4,704.0,0.0,17
8935485,71484437920,157.0,173.0,-1.0,0,0.398,704.0,0.0,17
8935486,71484445918,152.0,168.0,-6.0,0,0.396,704.0,0.0,17
8935487,71484453920,141.0,161.0,-12.0,0,0.414,704.0,0.0,17
8935488,71484461916,144.0,157.0,-18.0,0,0.423,704.0,0.0,17
8935489,71484469920,130.0,151.0,-23.0,0,0.421,704.0,0.0,17
8935490,71484477920,138.0,148.0,-28.0,0,0.429,704.0,0.0,17
8935491,71484485916,133.0,144.0,-33.0,0,0.436,704.0,0.0,17
8935492,71484493917,126.0,140.0,-37.0,0,0.433,704.0,0.0,17
8935493,71484501920,133.0,138.0,-40.0,0,0.428,704.0,0.0,17
8935494,71484509917,120.0,134.0,-44.0,0,0.443,704.0,0.0,17
8935495,71484517917,124.0,131.0,-47.0,0,0.438,704.0,0.0,17
8935496,71484525917,121.0,129.0,-50.0,0,0.443,704.0,0.0,17
8935497,71484533920,116.0,126.0,-53.0,0,0.447,704.0,0.0,17
8935498,71484541920,124.0,125.0,-55.0,0,0.441,704.0,0.0,17
8935499,71484549920,118.0,124.0,-56.0,0,0.433,704.0,0.0,17
8935500,71484557920,135.0,126.0,-57.0,0,0.434,704.0,0.0,17
8935501,71484565916,146.0,131.0,-56.0,1,0.432,704.0,0.0,17
8935502,71484573918,161.0,138.0,-53.0,0,0.445,704.0,0.0,17
8935503,71484581917,197.0,153.0,-46.0,0,0.473,704.0,0.0,17
8935504,71484589920,218.0,168.0,-37.0,0,0.479,704.0,0.0,17
8935505,71484597920,263.0,191.0,-24.0,0,0.497,704.0,0.0,17
8935506,71484605921,292.0,216.0,-8.0,0,0.499,704.0,0.0,17
8935507,71484613916,325.0,242.0,11.0,0,0.495,704.0,0.0,17
8935508,71484621920,367.0,272.0,33.0,0,0.526,704.0,0.0,17
8935509,71484629920,388.0,300.0,56.0,0,0.564,704.0,0.0,17
8935510,71484637916,427.0,331.0,82.0,0,0.619,704.0,0.0,17
8935511,71484645917,449.0,360.0,108.0,0,0.658,704.0,0.0,17
8935512,71484653920,468.0,386.0,133.0,0,0.69,704.0,0.0,17
8935513,71484661918,492.0,412.0,159.0,0,0.732,704.0,0.0,17
8935514,71484669920,496.0,432.0,182.0,0,0.746,704.0,0.0,17
8935515,71484677917,509.0,451.0,204.0,0,0.766,704.0,0.0,17
8935516,71484685919,508.0,465.0,222.0,0,0.758,704.0,0.0,17
8935517,71484693920,498.0,473.0,238.0,0,0.757,704.0,0.0,17
8935518,71484701916,499.0,479.0,250.0,0,0.732,704.0,0.0,17
8935519,71484709920,476.0,478.0,258.0,0,0.7,704.0,0.0,17
8935520,71484717921,472.0,477.0,262.0,0,0.664,704.0,0.0,17
8935521,71484725921,448.0,470.0,263.0,0,0.636,704.0,0.0,17
8935522,71484733920,425.0,459.0,260.0,1,0.65,704.0,0.0,17
8935523,71484741917,407.0,446.0,254.0,0,0.671,704.0,0.0,17
8935524,71484749920,372.0,428.0,244.0,0,0.697,704.0,0.0,17
8935525,71484757920,350.0,409.0,231.0,0,0.709,704.0,0.0,17
8935526,71484765920,317.0,387.0,215.0,0,0.715,704.0,0.0,17
8935527,71484773920,287.0,363.0,197.0,0,0.706,704.0,0.0,17
8935528,71484781920,261.0,338.0,176.0,0,0.697,704.0,0.0,17
8935529,71484789917,219.0,309.0,153.0,0,0.674,704.0,0.0,17
8935530,71484797921,197.0,282.0,129.0,0,0.642,704.0,0.0,17
8935531,71484805920,167.0,254.0,103.0,0,0.611,704.0,0.0,17
8935532,71484813920,138.0,226.0,77.0,0,0.57,704.0,0.0,17
8935533,71484821920,117.0,200.0,51.0,0,0.532,704.0,0.0,17
8935534,71484829920,85.0,172.0,24.0,0,0.543,704.0,0.0,17
8935535,71484837921,74.0,148.0,-2.0,0,0.575,704.0,0.0,17
8935536,71484845919,58.0,126.0,-26.0,0,0.601,704.0,0.0,17
8935537,71484853920,42.0,106.0,-49.0,0,0.631,704.0,0.0,17
8935538,71484861920,37.0,89.0,-70.0,0,0.65,704.0,0.0,17
8935539,71484869920,19.0,72.0,-90.0,0,0.673,704.0,0.0,17
8935540,71484877919,21.0,60.0,-107.0,0,0.675,704.0,0.0,17
8935541,71484885920,13.0,48.0,-122.0,0,0.679,704.0,0.0,17
8935542,71484893920,9.0,39.0,-136.0,0,0.688,704.0,0.0,17
8935543,71484901921,15.0,33.0,-146.0,0,0.665,704.0,0.0,17
8935544,71484909918,6.0,27.0,-156.0,0,0.675,704.0,0.0,17
8935545,71484917920,15.0,24.0,-163.0,0,0.655,704.0,0.0,17
8935546,71484925921,12.0,21.0,-168.0,0,0.642,704.0,0.0,17
8935547,71484933921,13.0,19.0,-172.0,0,0.636,704.0,0.0,17
8935548,71484941919,21.0,19.0,-175.0,0,0.629,704.0,0.0,17
8935549,71484949920,20.0,20.0,-176.0,0,0.611,704.0,0.0,17
8935550,71484957920,30.0,22.0,-176.0,1,0.601,704.0,0.0,17
8935551,71484965918,36.0,25.0,-175.0,0,0.607,704.0,0.0,17
8935552,71484973921,40.0,29.0,-173.0,0,0.613,704.0,0.0,17
8935553,71484981918,59.0,36.0,-169.0,0,0.626,704.0,0.0,17
8935554,71484989920,53.0,40.0,-164.0,0,0.629,704.0,0.0,17
8935555,71484997920,69.0,47.0,-159.0,0,0.623,704.0,0.0,17
8935556,71485005917,73.0,54.0,-153.0,0,0.625,704.0,0.0,17
8935557,71485013921,75.0,59.0,-147.0,0,0.617,704.0,0.0,17
8935558,71485021917,84.0,65.0,-141.0,0,0.609,704.0,0.0,17
8935559,71485029918,73.0,67.0,-136.0,0,0.592,704.0,0.0,17
8935560,71485037917,78.0,70.0,-131.0,0,0.586,704.0,0.0,17
8935561,71485045918,72.0,70.0,-127.0,0,0.57,704.0,0.0,17
8935562,71485053918,68.0,70.0,-124.0,0,0.556,704.0,0.0,17
8935563,71485061920,68.0,69.0,-122.0,0,0.544,704.0,0.0,17
8935564,71485069916,52.0,65.0,-122.0,1,0.526,704.0,0.0,17
8935565,71485077920,58.0,63.0,-122.0,0,0.526,704.0,0.0,17
8935566,71485085917,50.0,60.0,-122.0,0,0.526,704.0,0.0,17
8935567,71485093921,45.0,56.0,-123.0,0,0.536,704.0,0.0,17
8935568,71485101920,51.0,55.0,-124.0,0,0.538,704.0,0.0,17
8935569,71485109918,42.0,52.0,-126.0,0,0.55,704.0,0.0,17
8935570,71485117917,47.0,51.0,-127.0,0,0.543,704.0,0.0,17
8935571,71485125920,43.0,49.0,-128.0,0,0.544,704.0,0.0,17
8935572,71485133920,39.0,46.0,-129.0,0,0.545,704.0,0.0,17
8935573,71485141920,40.0,45.0,-130.0,0,0.546,704.0,0.0,17
8935574,71485149917,23.0,40.0,-132.0,0,0.558,704.0,0.0,17
8935575,71485157919,16.0,34.0,-135.0,0,0.572,704.0,0.0,17
8935576,71485165920,0.0,26.0,-139.0,0,0.587,704.0,0.0,19
8935577,71485173921,0.0,19.0,-144.0,0,0.604,704.0,0.0,19
8935578,71485181920,0.0,15.0,-148.0,0,0.6,704.0,0.0,19
8935579,71485189918,0.0,11.0,-151.0,0,0.593,704.0,0.0,19
8935580,71485197920,0.0,8.0,-154.0,0,0.597,704.0,0.0,19
8935581,71485205920,0.0,6.0,-157.0,0,0.6,704.0,0.0,19
8935582,71485213917,0.0,5.0,-159.0,0,0.592,704.0,0.0,19
8935583,71485221920,0.0,4.0,-160.0,0,0.582,704.0,0.0,19
8935584,71485229917,0.0,3.0,-161.0,0,0.582,704.0,0.0,19
8935585,71485237920,0.0,2.0,-162.0,0,0.582,704.0,0.0,19
8935586,71485245920,0.0,2.0,-162.0,1,0.571,704.0,0.0,19
8935587,71485253916,0.0,1.0,-162.0,0,0.57,704.0,0.0,19
8935588,71485261919,0.0,1.0,-162.0,0,0.569,704.0,0.0,19
8935589,71485269920,0.0,1.0,-161.0,0,0.575,704.0,0.0,19
8935590,71485277917,0.0,1.0,-161.0,1,0.564,704.0,0.0,19
8935591,71485285920,0.0,0.0,-160.0,0,0.571,704.0,0.0,19
8935592,71485293920,0.0,0.0,-159.0,0,0.568,704.0,0.0,19
8935593,71485301920,0.0,0.0,-159.0,1,0.557,704.0,0.0,19
8935594,71485309916,0.0,0.0,-158.0,0,0.563,704.0,0.0,19
8935595,71485317917,6.0,2.0,-156.0,0,0.569,704.0,0.0,17
8935596,71485325917,28.0,8.0,-153.0,0,0.572,704.0,0.0,17
8935597,71485333921,57.0,20.0,-147.0,0,0.592,704.0,0.0,17
8935598,71485341920,96.0,38.0,-138.0,0,0.607,704.0,0.0,17
8935599,71485349920,123.0,59.0,-125.0,0,0.624,704.0,0.0,17
8935600,71485357920,172.0,86.0,-108.0,0,0.627,704.0,0.0,17
8935601,71485365916,207.0,116.0,-87.0,0,0.617,704.0,0.0,17
8935602,71485373921,244.0,147.0,-63.0,0,0.59,704.0,0.0,17
8935603,71485381920,288.0,181.0,-37.0,0,0.554,704.0,0.0,17
8935604,71485389921,312.0,213.0,-9.0,0,0.559,704.0,0.0,17
8935605,71485397921,351.0,246.0,21.0,0,0.616,704.0,0.0,17
8935606,71485405920,375.0,277.0,50.0,0,0.664,704.0,0.0,17
8935607,71485413918,390.0,305.0,79.0,0,0.715,704.0,0.0,17
8935608,71485421920,412.0,331.0,107.0,0,0.757,704.0,0.0,17
8935609,71485429920,412.0,350.0,132.0,0,0.779,704.0,0.0,17
8935610,71485437920,429.0,369.0,155.0,0,0.797,704.0,0.0,17
8935611,71485445920,427.0,383.0,174.0,0,0.791,704.0,0.0,17
8935612,71485453920,423.0,393.0,191.0,0,0.791,704.0,0.0,17
8935613,71485461918,426.0,401.0,205.0,0,0.777,704.0,0.0,17
8935614,71485469920,410.0,403.0,215.0,0,0.747,704.0,0.0,17
8935615,71485477919,416.0,406.0,222.0,0,0.722,704.0,0.0,17
8935616,71485485920,407.0,406.0,227.0,0,0.706,704.0,0.0,17
8935617,71485493920,396.0,404.0,229.0,0,0.678,704.0,0.0,17
8935618,71485501920,396.0,402.0,230.0,0,0.668,704.0,0.0,17
8935619,71485509920,373.0,395.0,228.0,1,0.674,704.0,0.0,17
8935620,71485517920,364.0,387.0,224.0,0,0.687,704.0,0.0,17
8935621,71485525920,338.0,375.0,218.0,0,0.699,704.0,0.0,17
8935622,71485533916,309.0,359.0,208.0,0,0.727,704.0,0.0,17
8935623,71485541918,292.0,343.0,196.0,0,0.732,704.0,0.0,17
8935624,71485549920,252.0,321.0,181.0,0,0.741,704.0,0.0,17
8935625,71485557920,235.0,300.0,164.0,0,0.735,704.0,0.0,17
8935626,71485565920,211.0,279.0,145.0,0,0.724,704.0,0.0,17
8935627,71485573920,178.0,254.0,125.0,0,0.7,704.0,0.0,17
8935628,71485581920,167.0,233.0,105.0,0,0.668,704.0,0.0,17
8935629,71485589917,137.0,210.0,83.0,0,0.644,704.0,0.0,17
8935630,71485597919,136.0,192.0,63.0,0,0.597,704.0,0.0,17
8935631,71485605920,125.0,176.0,43.0,0,0.563,704.0,0.0,17
8935632,71485613919,116.0,161.0,26.0,0,0.513,704.0,0.0,17
8935633,71485621917,124.0,152.0,10.0,0,0.48,704.0,0.0,17
8935634,71485629920,119.0,144.0,-3.0,0,0.435,704.0,0.0,17
8935635,71485637920,132.0,141.0,-13.0,0,0.408,704.0,0.0,17
8935636,71485645920,140.0,141.0,-20.0,0,0.391,704.0,0.0,17
8935637,71485653920,147.0,142.0,-25.0,0,0.381,704.0,0.0,17
8935638,71485661920,166.0,148.0,-27.0,0,0.358,704.0,0.0,17
8935639,71485669919,169.0,153.0,-26.0,1,0.348,704.0,0.0,17
8935640,71485677919,186.0,161.0,-24.0,0,0.354,704.0,0.0,17
8935641,71485685920,189.0,168.0,-20.0,0,0.366,704.0,0.0,17
8935642,71485693920,194.0,174.0,-15.0,0,0.368,704.0,0.0,17
8935643,71485701920,208.0,182.0,-10.0,0,0.362,704.0,0.0,17
8935644,71485709920,203.0,187.0,-5.0,0,0.355,704.0,0.0,17
8935645,71485717920,209.0,193.0,1.0,0,0.373,704.0,0.0,17
8935646,71485725920,202.0,195.0,5.0,0,0.36,704.0,0.0,17
8935647,71485733920,196.0,195.0,8.0,0,0.356,704.0,0.0,17
8935648,71485741920,192.0,194.0,10.0,0,0.35,704.0,0.0,17
8935649,71485749920,169.0,188.0,10.0,1,0.333,704.0,0.0,17
8935650,71485757920,160.0,181.0,8.0,0,0.347,704.0,0.0,17
8935651,71485765920,140.0,171.0,3.0,0,0.366,704.0,0.0,17
8935652,71485773920,115.0,158.0,-4.0,0,0.375,704.0,0.0,17
8935653,71485781917,101.0,144.0,-12.0,0,0.395,704.0,0.0,17
8935654,71485789917,73.0,127.0,-24.0,0,0.45,704.0,0.0,17
8935655,71485797918,60.0,111.0,-36.0,0,0.468,704.0,0.0,17
8935656,71485805920,42.0,94.0,-50.0,0,0.507,704.0,0.0,17
8935657,71485813920,18.0,76.0,-64.0,0,0.53,704.0,0.0,17
8935658,71485821920,19.0,62.0,-78.0,0,0.552,704.0,0.0,17
8935659,71485829917,0.0,47.0,-93.0,0,0.585,704.0,0.0,19
8935660,71485837920,2.0,36.0,-106.0,0,0.588,704.0,0.0,17
8935661,71485845919,0.0,27.0,-117.0,0,0.587,704.0,0.0,19
8935662,71485853918,0.0,21.0,-127.0,0,0.593,704.0,0.0,19
8935663,71485861920,0.0,16.0,-135.0,0,0.586,704.0,0.0,19
8935664,71485869916,0.0,12.0,-142.0,0,0.587,704.0,0.0,19
8935665,71485877917,4.0,10.0,-147.0,0,0.575,704.0,0.0,17
8935666,71485885920,5.0,9.0,-150.0,0,0.56,704.0,0.0,17
8935667,71485893917,10.0,9.0,-152.0,0,0.553,704.0,0.0,17
8935668,71485901920,25.0,13.0,-152.0,1,0.535,704.0,0.0,17
8935669,71485909921,24.0,16.0,-152.0,0,0.534,704.0,0.0,17
8935670,71485917921,46.0,23.0,-149.0,0,0.555,704.0,0.0,17
8935671,71485925920,52.0,30.0,-144.0,0,0.566,704.0,0.0,17
8935672,71485933920,59.0,37.0,-139.0,0,0.558,704.0,0.0,17
8935673,71485941920,78.0,47.0,-132.0,0,0.566,704.0,0.0,17
8935674,71485949921,78.0,54.0,-124.0,0,0.563,704.0,0.0,17
8935675,71485957921,99.0,65.0,-116.0,0,0.55,704.0,0.0,17
8935676,71485965920,106.0,75.0,-107.0,0,0.545,704.0,0.0,17
8935677,71485973920,111.0,84.0,-98.0,0,0.531,704.0,0.0,17
8935678,71485981917,131.0,95.0,-88.0,0,0.524,704.0,0.0,17
8935679,71485989920,132.0,104.0,-78.0,0,0.508,704.0,0.0,17
8935680,71485997920,145.0,114.0,-68.0,0,0.492,704.0,0.0,17
8935681,71486005916,147.0,122.0,-59.0,0,0.468,704.0,0.0,17
8935682,71486013920,150.0,129.0,-50.0,0,0.454,704.0,0.0,17
8935683,71486021917,163.0,137.0,-42.0,0,0.432,704.0,0.0,17
8935684,71486029918,160.0,143.0,-34.0,0,0.42,704.0,0.0,17
8935685,71486037917,174.0,150.0,-26.0,0,0.408,704.0,0.0,17
8935686,71486045920,177.0,157.0,-19.0,0,0.389,704.0,0.0,17
8935687,71486053920,191.0,165.0,-11.0,0,0.387,704.0,0.0,17
8935688,71486061916,215.0,177.0,-2.0,0,0.404,704.0,0.0,17
8935689,71486069917,229.0,190.0,7.0,0,0.417,704.0,0.0,17
8935690,71486077920,262.0,207.0,19.0,0,0.462,704.0,0.0,17
8935691,71486085916,292.0,228.0,34.0,0,0.512,704.0,0.0,17
8935692,71486093918,321.0,250.0,50.0,0,0.545,704.0,0.0,17
8935693,71486101917,362.0,277.0,69.0,0,0.599,704.0,0.0,17
8935694,71486109920,383.0,303.0,90.0,0,0.646,704.0,0.0,17
8935695,71486117919,428.0,333.0,113.0,0,0.694,704.0,0.0,17
8935696,71486125920,456.0,363.0,138.0,0,0.742,704.0,0.0,17
8935697,71486133920,481.0,392.0,164.0,0,0.78,704.0,0.0,17
8935698,71486141917,510.0,420.0,189.0,0,0.803,704.0,0.0,17
8935699,71486149918,517.0,444.0,214.0,0,0.827,704.0,0.0,17
8935700,71486157920,532.0,465.0,237.0,0,0.833,704.0,0.0,17
8935701,71486165920,535.0,482.0,258.0,0,0.835,704.0,0.0,17
8935702,71486173917,533.0,494.0,276.0,0,0.823,704.0,0.0,17
8935703,71486181918,537.0,505.0,291.0,0,0.806,704.0,0.0,17
8935704,71486189921,521.0,509.0,302.0,0,0.776,704.0,0.0,17
8935705,71486197919,518.0,511.0,310.0,0,0.751,704.0,0.0,17
8935706,71486205918,503.0,509.0,314.0,0,0.716,704.0,0.0,17
8935707,71486213916,488.0,504.0,316.0,0,0.698,704.0,0.0,17
8935708,71486221920,475.0,497.0,314.0,1,0.695,704.0,0.0,17
8935709,71486229920,445.0,484.0,309.0,0,0.717,704.0,0.0,17
8935710,71486237920,428.0,471.0,300.0,0,0.746,704.0,0.0,17
8935711,71486245920,396.0,453.0,289.0,0,0.755,704.0,0.0,17
8935712,71486253918,356.0,429.0,273.0,0,0.784,704.0,0.0,17
8935713,71486261918,332.0,406.0,255.0,0,0.783,704.0,0.0,17
8935714,71486269919,288.0,377.0,234.0,0,0.783,704.0,0.0,17
8935715,71486277921,260.0,349.0,210.0,0,0.773,704.0,0.0,17
8935716,71486285920,230.0,320.0,185.0,0,0.747,704.0,0.0,17
8935717,71486293917,196.0,290.0,158.0,0,0.719,704.0,0.0,17
8935718,71486301920,176.0,262.0,130.0,0,0.682,704.0,0.0,17
8935719,71486309920,144.0,234.0,103.0,0,0.636,704.0,0.0,17
8935720,71486317919,126.0,208.0,75.0,0,0.597,704.0,0.0,17
8935721,71486325920,103.0,182.0,49.0,0,0.549,704.0,0.0,17
8935722,71486333920,81.0,158.0,23.0,0,0.513,704.0,0.0,17
8935723,71486341920,76.0,138.0,-1.0,0,0.521,704.0,0.0,17
8935724,71486349920,52.0,117.0,-24.0,0,0.547,704.0,0.0,17
8935725,71486357919,50.0,101.0,-45.0,0,0.565,704.0,0.0,17
8935726,71486365920,43.0,87.0,-64.0,0,0.58,704.0,0.0,17
8935727,71486373920,35.0,74.0,-81.0,0,0.59,704.0,0.0,17
8935728,71486381920,39.0,66.0,-95.0,0,0.588,704.0,0.0,17
8935729,71486389920,27.0,56.0,-107.0,0,0.589,704.0,0.0,17
8935730,71486397919,36.0,51.0,-117.0,0,0.586,704.0,0.0,17
8935731,71486405920,36.0,48.0,-125.0,0,0.58,704.0,0.0,17
8935732,71486413917,34.0,44.0,-132.0,0,0.58,704.0,0.0,17
8935733,71486421920,48.0,45.0,-136.0,0,0.56,704.0,0.0,17
8935734,71486429920,47.0,46.0,-138.0,0,0.546,704.0,0.0,17
8935735,71486437921,66.0,51.0,-138.0,1,0.53,704.0,0.0,17
8935736,71486445921,71.0,56.0,-137.0,0,0.535,704.0,0.0,17
8935737,71486453917,81.0,62.0,-133.0,0,0.552,704.0,0.0,17
8935738,71486461920,96.0,70.0,-129.0,0,0.546,704.0,0.0,17
8935739,71486469921,94.0,76.0,-123.0,0,0.554,704.0,0.0,17
8935740,71486477919,100.0,82.0,-118.0,0,0.537,704.0,0.0,17
8935741,71486485920,98.0,86.0,-112.0,0,0.537,704.0,0.0,17
8935742,71486493917,89.0,86.0,-108.0,0,0.513,704.0,0.0,17
8935743,71486501917,84.0,86.0,-105.0,0,0.499,704.0,0.0,17
8935744,71486509921,62.0,80.0,-104.0,0,0.48,704.0,0.0,17
8935745,71486517916,59.0,75.0,-105.0,1,0.481,704.0,0.0,17
8935746,71486525920,44.0,67.0,-107.0,0,0.491,704.0,0.0,17
8935747,71486533917,28.0,58.0,-112.0,0,0.523,704.0,0.0,17
8935748,71486541917,27.0,50.0,-117.0,0,0.53,704.0,0.0,17
8935749,71486549920,6.0,40.0,-123.0,0,0.547,704.0,0.0,17
8935750,71486557920,9.0,32.0,-129.0,0,0.555,704.0,0.0,17
8935751,71486565919,0.0,24.0,-136.0,0,0.573,704.0,0.0,19
8935752,71486573917,0.0,18.0,-142.0,0,0.572,704.0,0.0,19
8935753,71486581921,0.0,14.0,-147.0,0,0.57,704.0,0.0,19
8935754,71486589921,0.0,11.0,-152.0,0,0.576,704.0,0.0,19
8935755,71486597920,0.0,8.0,-155.0,0,0.561,704.0,0.0,19
8935756,71486605920,0.0,6.0,-158.0,0,0.564,704.0,0.0,19
8935757,71486613920,0.0,5.0,-160.0,0,0.557,704.0,0.0,19
8935758,71486621920,0.0,3.0,-162.0,0,0.559,704.0,0.0,19
8935759,71486629920,0.0,3.0,-163.0,0,0.55,704.0,0.0,19
8935760,71486637920,4.0,3.0,-163.0,1,0.541,704.0,0.0,17
8935761,71486645920,2.0,3.0,-163.0,0,0.54,704.0,0.0,17
8935762,71486653920,0.0,2.0,-163.0,0,0.539,704.0,0.0,19
8935763,71486661920,13.0,5.0,-162.0,0,0.545,704.0,0.0,17
8935764,71486669920,9.0,6.0,-160.0,0,0.55,704.0,0.0,17
8935765,71486677921,14.0,8.0,-158.0,0,0.547,704.0,0.0,17
8935766,71486685920,18.0,10.0,-156.0,0,0.543,704.0,0.0,17
8935767,71486693920,12.0,11.0,-154.0,0,0.54,704.0,0.0,17
8935768,71486701918,24.0,14.0,-151.0,0,0.544,704.0,0.0,17
8935769,71486709918,18.0,15.0,-149.0,0,0.532,704.0,0.0,17
8935770,71486717920,29.0,18.0,-146.0,0,0.536,704.0,0.0,17
8935771,71486725920,31.0,21.0,-142.0,0,0.539,704.0,0.0,17
8935772,71486733920,31.0,24.0,-139.0,0,0.525,704.0,0.0,17
8935773,71486741920,44.0,29.0,-135.0,0,0.528,704.0,0.0,17
8935774,71486749920,47.0,33.0,-131.0,0,0.522,704.0,0.0,17
8935775,71486757920,73.0,43.0,-125.0,0,0.532,704.0,0.0,17
8935776,71486765917,92.0,55.0,-117.0,0,0.538,704.0,0.0,17
8935777,71486773920,112.0,69.0,-107.0,0,0.542,704.0,0.0,17
8935778,71486781920,153.0,89.0,-94.0,0,0.549,704.0,0.0,17
8935779,71486789918,180.0,111.0,-79.0,0,0.543,704.0,0.0,17
8935780,71486797920,224.0,138.0,-60.0,0,0.545,704.0,0.0,17
8935781,71486805920,255.0,167.0,-38.0,0,0.533,704.0,0.0,17
8935782,71486813921,288.0,196.0,-14.0,0,0.513,704.0,0.0,17
8935783,71486821920,323.0,227.0,11.0,0,0.552,704.0,0.0,17
8935784,71486829916,347.0,256.0,38.0,0,0.601,704.0,0.0,17
8935785,71486837921,381.0,286.0,65.0,0,0.641,704.0,0.0,17
8935786,71486845921,401.0,314.0,92.0,0,0.682,704.0,0.0,17
8935787,71486853918,414.0,338.0,118.0,0,0.714,704.0,0.0,17
8935788,71486861920,435.0,362.0,143.0,0,0.743,704.0,0.0,17
8935789,71486869920,430.0,378.0,165.0,0,0.752,704.0,0.0,17
8935790,71486877921,439.0,393.0,185.0,0,0.761,704.0,0.0,17
8935791,71486885920,435.0,403.0,201.0,0,0.746,704.0,0.0,17
8935792,71486893916,424.0,408.0,214.0,0,0.733,704.0,0.0,17
8935793,71486901920,423.0,412.0,223.0,0,0.704,704.0,0.0,17
8935794,71486909920,403.0,410.0,229.0,0,0.68,704.0,0.0,17
8935795,71486917921,394.0,406.0,232.0,0,0.655,704.0,0.0,17
8935796,71486925917,368.0,397.0,230.0,1,0.644,704.0,0.0,17
8935797,71486933920,342.0,383.0,225.0,0,0.664,704.0,0.0,17
8935798,71486941921,325.0,369.0,217.0,0,0.682,704.0,0.0,17
8935799,71486949920,294.0,351.0,206.0,0,0.697,704.0,0.0,17
8935800,71486957921,274.0,332.0,192.0,0,0.707,704.0,0.0,17
8935801,71486965920,245.0,311.0,176.0,0,0.704,704.0,0.0,17
8935802,71486973920,216.0,288.0,158.0,0,0.696,704.0,0.0,17
8935803,71486981917,195.0,266.0,138.0,0,0.683,704.0,0.0,17
8935804,71486989919,159.0,240.0,117.0,0,0.659,704.0,0.0,17
8935805,71486997920,142.0,216.0,94.0,0,0.637,704.0,0.0,17
8935806,71487005918,116.0,192.0,72.0,0,0.598,704.0,0.0,17
8935807,71487013920,89.0,167.0,48.0,0,0.574,704.0,0.0,17
8935808,71487021917,78.0,145.0,25.0,0,0.536,704.0,0.0,17
8935809,71487029918,55.0,123.0,3.0,0,0.5,704.0,0.0,17
8935810,71487037921,48.0,105.0,-18.0,0,0.498,704.0,0.0,17
8935811,71487045920,36.0,88.0,-38.0,0,0.517,704.0,0.0,17
8935812,71487053917,27.0,73.0,-56.0,0,0.528,704.0,0.0,17
8935813,71487061920,28.0,62.0,-72.0,0,0.535,704.0,0.0,17
8935814,71487069917,22.0,53.0,-86.0,0,0.539,704.0,0.0,17
8935815,71487077920,30.0,47.0,-97.0,0,0.53,704.0,0.0,17
8935816,71487085920,34.0,44.0,-106.0,0,0.525,704.0,0.0,17
8935817,71487093920,34.0,42.0,-113.0,0,0.518,704.0,0.0,17
8935818,71487101916,50.0,44.0,-116.0,0,0.488,704.0,0.0,17
8935819,71487109918,50.0,45.0,-119.0,0,0.492,704.0,0.0,17
8935820,71487117920,64.0,50.0,-119.0,1,0.468,704.0,0.0,17
8935821,71487125918,70.0,55.0,-117.0,0,0.48,704.0,0.0,17
8935822,71487133918,75.0,60.0,-114.0,0,0.483,704.0,0.0,17
8935823,71487141921,95.0,68.0,-110.0,0,0.486,704.0,0.0,17
8935824,71487149920,94.0,74.0,-104.0,0,0.493,704.0,0.0,17
8935825,71487157920,112.0,84.0,-98.0,0,0.484,704.0,0.0,17
8935826,71487165920,119.0,92.0,-91.0,0,0.483,704.0,0.0,17
8935827,71487173920,123.0,100.0,-83.0,0,0.479,704.0,0.0,17
8935828,71487181920,140.0,109.0,-75.0,0,0.468,704.0,0.0,17
8935829,71487189920,133.0,115.0,-67.0,0,0.456,704.0,0.0,17
8935830,71487197920,148.0,123.0,-60.0,0,0.437,704.0,0.0,17
8935831,71487205920,152.0,130.0,-52.0,0,0.434,704.0,0.0,17
8935832,71487213921,151.0,135.0,-45.0,0,0.416,704.0,0.0,17
8935833,71487221920,160.0,141.0,-38.0,0,0.406,704.0,0.0,17
8935834,71487229920,156.0,145.0,-32.0,0,0.389,704.0,0.0,17
8935835,71487237920,161.0,149.0,-27.0,0,0.373,704.0,0.0,17
8935836,71487245921,160.0,151.0,-22.0,0,0.366,704.0,0.0,17
8935837,71487253918,157.0,153.0,-19.0,0,0.344,704.0,0.0,17
8935838,71487261920,165.0,156.0,-15.0,0,0.346,704.0,0.0,17
8935839,71487269920,154.0,155.0,-13.0,0,0.331,704.0,0.0,17
8935840,71487277920,160.0,156.0,-11.0,0,0.335,704.0,0.0,17
8935841,71487285916,157.0,157.0,-9.0,0,0.338,704.0,0.0,17
8935842,71487293921,150.0,155.0,-9.0,1,0.323,704.0,0.0,17
8935843,71487301917,153.0,155.0,-8.0,0,0.334,704.0,0.0,17
8935844,71487309918,142.0,151.0,-9.0,1,0.334,704.0,0.0,17
8935845,71487317920,146.0,150.0,-10.0,0,0.333,704.0,0.0,17
8935846,71487325920,142.0,148.0,-11.0,0,0.333,704.0,0.0,17
8935847,71487333919,134.0,145.0,-13.0,0,0.34,704.0,0.0,17
8935848,71487341920,142.0,144.0,-14.0,0,0.331,704.0,0.0,17
8935849,71487349920,127.0,140.0,-16.0,0,0.338,704.0,0.0,17
8935850,71487357920,134.0,138.0,-18.0,0,0.336,704.0,0.0,17
8935851,71487365920,130.0,136.0,-20.0,0,0.334,704.0,0.0,17
8935852,71487373920,122.0,133.0,-22.0,0,0.332,704.0,0.0,17
8935853,71487381920,133.0,133.0,-24.0,0,0.33,704.0,0.0,17
8935854,71487389919,117.0,129.0,-26.0,0,0.331,704.0,0.0,17
8935855,71487397917,124.0,128.0,-28.0,0,0.333,704.0,0.0,17
8935856,71487405917,118.0,125.0,-30.0,0,0.336,704.0,0.0,17
8935857,71487413920,114.0,123.0,-32.0,0,0.339,704.0,0.0,17
8935858,71487421917,121.0,122.0,-33.0,0,0.331,704.0,0.0,17
8935859,71487429920,111.0,120.0,-35.0,0,0.343,704.0,0.0,17
8935860,71487437920,120.0,120.0,-36.0,0,0.336,704.0,0.0,17
8935861,71487445919,124.0,121.0,-37.0,0,0.338,704.0,0.0,17
8935862,71487453921,130.0,123.0,-37.0,1,0.329,704.0,0.0,17
8935863,71487461920,150.0,130.0,-34.0,0,0.353,704.0,0.0,17
8935864,71487469921,159.0,137.0,-31.0,0,0.349,704.0,0.0,17
8935865,71487477920,192.0,150.0,-24.0,0,0.379,704.0,0.0,17
8935866,71487485917,219.0,167.0,-15.0,0,0.408,704.0,0.0,17
8935867,71487493921,249.0,187.0,-3.0,0,0.453,704.0,0.0,17
8935868,71487501920,292.0,212.0,13.0,0,0.511,704.0,0.0,17
8935869,71487509920,308.0,235.0,31.0,0,0.553,704.0,0.0,17
8935870,71487517918,351.0,263.0,52.0,0,0.607,704.0,0.0,17
8935871,71487525917,375.0,291.0,74.0,0,0.646,704.0,0.0,17
8935872,71487533916,401.0,317.0,97.0,0,0.687,704.0,0.0,17
8935873,71487541917,434.0,346.0,122.0,0,0.733,704.0,0.0,17
8935874,71487549918,444.0,369.0,145.0,0,0.752,704.0,0.0,17
8935875,71487557916,465.0,393.0,169.0,0,0.786,704.0,0.0,17
8935876,71487565920,472.0,412.0,190.0,0,0.79,704.0,0.0,17
8935877,71487573920,470.0,426.0,209.0,0,0.793,704.0,0.0,17
8935878,71487581921,480.0,439.0,226.0,0,0.791,704.0,0.0,17
8935879,71487589920,468.0,446.0,239.0,0,0.766,704.0,0.0,17
8935880,71487597921,464.0,450.0,250.0,0,0.754,704.0,0.0,17
8935881,71487605920,456.0,452.0,257.0,0,0.72,704.0,0.0,17
8935882,71487613918,439.0,449.0,261.0,0,0.693,704.0,0.0,17
8935883,71487621920,432.0,445.0,262.0,0,0.665,704.0,0.0,17
8935884,71487629919,404.0,435.0,259.0,1,0.679,704.0,0.0,17
8935885,71487637920,396.0,425.0,254.0,0,0.692,704.0,0.0,17
8935886,71487645920,371.0,412.0,247.0,0,0.703,704.0,0.0,17
8935887,71487653920,345.0,396.0,236.0,0,0.73,704.0,0.0,17
8935888,71487661917,332.0,380.0,224.0,0,0.726,704.0,0.0,17
8935889,71487669920,296.0,360.0,209.0,0,0.736,704.0,0.0,17
8935890,71487677920,283.0,341.0,192.0,0,0.731,704.0,0.0,17
8935891,71487685920,259.0,321.0,175.0,0,0.709,704.0,0.0,17
8935892,71487693920,234.0,300.0,156.0,0,0.698,704.0,0.0,17
8935893,71487701917,221.0,281.0,137.0,0,0.67,704.0,0.0,17
8935894,71487709920,193.0,260.0,117.0,0,0.646,704.0,0.0,17
8935895,71487717920,184.0,241.0,97.0,0,0.614,704.0,0.0,17
8935896,71487725920,167.0,223.0,78.0,0,0.577,704.0,0.0,17
8935897,71487733921,150.0,206.0,59.0,0,0.547,704.0,0.0,17
8935898,71487741917,148.0,192.0,42.0,0,0.506,704.0,0.0,17
8935899,71487749920,124.0,175.0,25.0,0,0.481,704.0,0.0,17
8935900,71487757920,125.0,163.0,9.0,0,0.451,704.0,0.0,17
8935901,71487765919,116.0,152.0,-5.0,0,0.452,704.0,0.0,17
8935902,71487773917,107.0,141.0,-18.0,0,0.463,704.0,0.0,17
8935903,71487781918,109.0,133.0,-30.0,0,0.472,704.0,0.0,17
8935904,71487789921,96.0,124.0,-40.0,0,0.47,704.0,0.0,17
8935905,71487797921,99.0,118.0,-50.0,0,0.486,704.0,0.0,17
8935906,71487805921,92.0,112.0,-58.0,0,0.481,704.0,0.0,17
8935907,71487813920,88.0,106.0,-65.0,0,0.483,704.0,0.0,17
8935908,71487821920,92.0,103.0,-71.0,0,0.484,704.0,0.0,17
8935909,71487829920,75.0,96.0,-77.0,0,0.494,704.0,0.0,17
8935910,71487837921,79.0,92.0,-83.0,0,0.504,704.0,0.0,17
8935911,71487845920,73.0,87.0,-88.0,0,0.504,704.0,0.0,17
8935912,71487853916,65.0,82.0,-93.0,0,0.512,704.0,0.0,17
8935913,71487861921,69.0,79.0,-97.0,0,0.51,704.0,0.0,17
8935914,71487869917,57.0,73.0,-101.0,0,0.517,704.0,0.0,17
8935915,71487877920,58.0,70.0,-105.0,0,0.523,704.0,0.0,17
8935916,71487885919,53.0,66.0,-109.0,0,0.53,704.0,0.0,17
8935917,71487893918,45.0,61.0,-112.0,0,0.526,704.0,0.0,17
8935918,71487901916,46.0,57.0,-116.0,0,0.541,704.0,0.0,17
8935919,71487909920,36.0,52.0,-120.0,0,0.547,704.0,0.0,17
8935920,71487917916,40.0,49.0,-123.0,0,0.543,704.0,0.0,17
8935921,71487925920,34.0,45.0,-126.0,0,0.547,704.0,0.0,17
8935922,71487933917,28.0,41.0,-129.0,0,0.551,704.0,0.0,17
8935923,71487941920,32.0,39.0,-132.0,0,0.555,704.0,0.0,17
8935924,71487949920,23.0,35.0,-135.0,0,0.559,704.0,0.0,17
8935925,71487957920,29.0,34.0,-137.0,0,0.552,704.0,0.0,17
8935926,71487965920,25.0,32.0,-138.0,0,0.544,704.0,0.0,17
8935927,71487973917,19.0,28.0,-140.0,0,0.554,704.0,0.0,17
8935928,71487981916,29.0,29.0,-141.0,0,0.546,704.0,0.0,17
8935929,71487989916,19.0,26.0,-143.0,0,0.556,704.0,0.0,17
8935930,71487997921,31.0,27.0,-143.0,1,0.538,704.0,0.0,17
8935931,71488005916,30.0,28.0,-142.0,0,0.543,704.0,0.0,17
8935932,71488013920,27.0,28.0,-142.0,1,0.534,704.0,0.0,17
8935933,71488021916,36.0,30.0,-141.0,0,0.54,704.0,0.0,17
8935934,71488029920,33.0,31.0,-140.0,0,0.537,704.0,0.0,17
8935935,71488037920,43.0,34.0,-138.0,0,0.542,704.0,0.0,17
8935936,71488045920,45.0,36.0,-135.0,0,0.546,704.0,0.0,17
8935937,71488053920,44.0,38.0,-133.0,0,0.533,704.0,0.0,17
8935938,71488061921,57.0,43.0,-129.0,0,0.544,704.0,0.0,17
8935939,71488069920,50.0,45.0,-126.0,0,0.529,704.0,0.0,17
8935940,71488077918,61.0,49.0,-123.0,0,0.524,704.0,0.0,17
8935941,71488085917,60.0,51.0,-119.0,0,0.526,704.0,0.0,17
8935942,71488093918,64.0,54.0,-115.0,0,0.519,704.0,0.0,17
8935943,71488101917,75.0,59.0,-111.0,0,0.512,704.0,0.0,17
8935944,71488109920,65.0,61.0,-108.0,0,0.496,704.0,0.0,17
8935945,71488117920,79.0,65.0,-103.0,0,0.506,704.0,0.0,17
8935946,71488125920,76.0,68.0,-100.0,0,0.482,704.0,0.0,17
8935947,71488133917,72.0,69.0,-97.0,0,0.476,704.0,0.0,17
8935948,71488141920,84.0,72.0,-93.0,0,0.478,704.0,0.0,17
8935949,71488149918,77.0,74.0,-90.0,0,0.463,704.0,0.0,17
8935950,71488157917,88.0,77.0,-87.0,0,0.457,704.0,0.0,17
8935951,71488165920,91.0,80.0,-83.0,0,0.46,704.0,0.0,17
8935952,71488173920,99.0,85.0,-80.0,0,0.445,704.0,0.0,17
8935953,71488181920,119.0,93.0,-74.0,0,0.464,704.0,0.0,17
8935954,71488189917,136.0,104.0,-68.0,0,0.454,704.0,0.0,17
8935955,71488197921,168.0,119.0,-58.0,0,0.478,704.0,0.0,17
8935956,71488205920,195.0,138.0,-46.0,0,0.478,704.0,0.0,17
8935957,71488213920,223.0,158.0,-32.0,0,0.476,704.0,0.0,17
8935958,71488221921,267.0,185.0,-14.0,0,0.483,704.0,0.0,17
8935959,71488229920,289.0,210.0,6.0,0,0.519,704.0,0.0,17
8935960,71488237920,329.0,239.0,28.0,0,0.564,704.0,0.0,17
8935961,71488245917,359.0,268.0,52.0,0,0.613,704.0,0.0,17
8935962,71488253917,381.0,295.0,77.0,0,0.657,704.0,0.0,17
8935963,71488261920,412.0,324.0,102.0,0,0.695,704.0,0.0,17
8935964,71488269916,422.0,347.0,127.0,0,0.732,704.0,0.0,17
8935965,71488277920,443.0,371.0,151.0,0,0.758,704.0,0.0,17
8935966,71488285920,451.0,390.0,173.0,0,0.773,704.0,0.0,17
8935967,71488293920,455.0,406.0,193.0,0,0.781,704.0,0.0,17
8935968,71488301920,460.0,419.0,210.0,0,0.774,704.0,0.0,17
8935969,71488309920,451.0,427.0,224.0,0,0.76,704.0,0.0,17
8935970,71488317920,451.0,433.0,236.0,0,0.751,704.0,0.0,17
8935971,71488325920,436.0,433.0,243.0,0,0.708,704.0,0.0,17
8935972,71488333917,416.0,429.0,247.0,0,0.681,704.0,0.0,17
8935973,71488341916,409.0,424.0,248.0,0,0.653,704.0,0.0,17
8935974,71488349918,378.0,413.0,245.0,1,0.667,704.0,0.0,17
8935975,71488357917,371.0,403.0,240.0,0,0.68,704.0,0.0,17
8935976,71488365920,344.0,389.0,231.0,0,0.708,704.0,0.0,17
8935977,71488373921,316.0,371.0,220.0,0,0.715,704.0,0.0,17
8935978,71488381920,300.0,354.0,207.0,0,0.719,704.0,0.0,17
8935979,71488389917,267.0,333.0,191.0,0,0.726,704.0,0.0,17
8935980,71488397920,247.0,312.0,173.0,0,0.718,704.0,0.0,17
8935981,71488405920,220.0,290.0,154.0,0,0.699,704.0,0.0,17
8935982,71488413920,193.0,266.0,134.0,0,0.677,704.0,0.0,17
8935983,71488421921,180.0,245.0,113.0,0,0.651,704.0,0.0,17
8935984,71488429920,155.0,223.0,92.0,0,0.618,704.0,0.0,17
8935985,71488437920,147.0,205.0,71.0,0,0.585,704.0,0.0,17
8935986,71488445918,132.0,187.0,52.0,0,0.542,704.0,0.0,17
8935987,71488453918,119.0,171.0,33.0,0,0.513,704.0,0.0,17
8935988,71488461916,116.0,157.0,16.0,0,0.474,704.0,0.0,17
8935989,71488469920,103.0,144.0,0.0,0,0.463,704.0,0.0,17
8935990,71488477917,107.0,135.0,-14.0,0,0.466,704.0,0.0,17
8935991,71488485917,98.0,126.0,-26.0,0,0.466,704.0,0.0,17
8935992,71488493920,96.0,119.0,-37.0,0,0.474,704.0,0.0,17
8935993,71488501920,105.0,116.0,-46.0,0,0.469,704.0,0.0,17
8935994,71488509920,95.0,111.0,-53.0,0,0.462,704.0,0.0,17
8935995,71488517918,104.0,109.0,-59.0,0,0.463,704.0,0.0,17
8935996,71488525920,102.0,107.0,-63.0,0,0.451,704.0,0.0,17
8935997,71488533916,99.0,105.0,-67.0,0,0.458,704.0,0.0,17
8935998,71488541917,106.0,105.0,-69.0,0,0.443,704.0,0.0,17
8935999,71488549917,99.0,104.0,-71.0,0,0.447,704.0,0.0,17
8936000,71488557920,108.0,105.0,-72.0,0,0.44,704.0,0.0,17
8936001,71488565920,103.0,104.0,-72.0,1,0.431,704.0,0.0,17
8936002,71488573920,99.0,103.0,-73.0,0,0.441,704.0,0.0,17
8936003,71488581920,103.0,103.0,-74.0,0,0.443,704.0,0.0,17
8936004,71488589921,92.0,100.0,-74.0,1,0.434,704.0,0.0,17
8936005,71488597916,95.0,99.0,-75.0,0,0.444,704.0,0.0,17
8936006,71488605919,89.0,97.0,-77.0,0,0.455,704.0,0.0,17
8936007,71488613920,82.0,93.0,-78.0,0,0.448,704.0,0.0,17
8936008,71488621920,85.0,91.0,-80.0,0,0.459,704.0,0.0,17
8936009,71488629920,71.0,86.0,-82.0,0,0.461,704.0,0.0,17
8936010,71488637921,76.0,84.0,-84.0,0,0.464,704.0,0.0,17
8936011,71488645917,74.0,81.0,-87.0,0,0.477,704.0,0.0,17
8936012,71488653917,67.0,78.0,-89.0,0,0.47,704.0,0.0,17
8936013,71488661920,70.0,76.0,-91.0,0,0.473,704.0,0.0,17
8936014,71488669918,56.0,71.0,-93.0,0,0.475,704.0,0.0,17
8936015,71488677921,60.0,68.0,-96.0,0,0.488,704.0,0.0,17
8936016,71488685921,56.0,65.0,-98.0,0,0.481,704.0,0.0,17
8936017,71488693920,48.0,61.0,-101.0,0,0.494,704.0,0.0,17
8936018,71488701920,57.0,60.0,-103.0,0,0.487,704.0,0.0,17
8936019,71488709920,46.0,57.0,-105.0,0,0.489,704.0,0.0,17
8936020,71488717920,49.0,55.0,-107.0,0,0.491,704.0,0.0,17
8936021,71488725920,46.0,53.0,-109.0,0,0.493,704.0,0.0,17
8936022,71488733916,40.0,50.0,-111.0,0,0.495,704.0,0.0,17
8936023,71488741920,49.0,49.0,-112.0,0,0.487,704.0,0.0,17
8936024,71488749920,40.0,47.0,-113.0,0,0.487,704.0,0.0,17
8936025,71488757921,47.0,47.0,-114.0,0,0.488,704.0,0.0,17
8936026,71488765920,47.0,47.0,-114.0,1,0.478,704.0,0.0,17
8936027,71488773920,44.0,46.0,-115.0,0,0.488,704.0,0.0,17
8936028,71488781920,52.0,48.0,-114.0,1,0.486,704.0,0.0,17
8936029,71488789917,46.0,47.0,-114.0,1,0.476,704.0,0.0,17
8936030,71488797918,56.0,49.0,-113.0,0,0.483,704.0,0.0,17
8936031,71488805917,53.0,50.0,-111.0,0,0.488,704.0,0.0,17
8936032,71488813917,51.0,50.0,-110.0,0,0.477,704.0,0.0,17
8936033,71488821921,62.0,53.0,-108.0,0,0.482,704.0,0.0,17
8936034,71488829919,55.0,54.0,-107.0,0,0.47,704.0,0.0,17
8936035,71488837920,64.0,56.0,-105.0,0,0.475,704.0,0.0,17
8936036,71488845920,70.0,60.0,-102.0,0,0.479,704.0,0.0,17
8936037,71488853919,75.0,63.0,-99.0,0,0.473,704.0,0.0,17
8936038,71488861918,99.0,72.0,-94.0,0,0.483,704.0,0.0,17
8936039,71488869918,108.0,81.0,-88.0,0,0.482,704.0,0.0,17
8936040,71488877920,143.0,96.0,-79.0,0,0.497,704.0,0.0,17
8936041,71488885920,176.0,115.0,-67.0,0,0.507,704.0,0.0,17
8936042,71488893917,202.0,136.0,-53.0,0,0.503,704.0,0.0,17
8936043,71488901920,244.0,162.0,-35.0,0,0.508,704.0,0.0,17
8936044,71488909916,268.0,188.0,-15.0,0,0.512,704.0,0.0,17
8936045,71488917920,311.0,218.0,8.0,0,0.567,704.0,0.0,17
8936046,71488925921,341.0,248.0,32.0,0,0.612,704.0,0.0,17
8936047,71488933918,368.0,277.0,58.0,0,0.666,704.0,0.0,17
8936048,71488941917,400.0,307.0,84.0,0,0.709,704.0,0.0,17
8936049,71488949920,415.0,333.0,110.0,0,0.749,704.0,0.0,17
8936050,71488957920,437.0,358.0,136.0,0,0.786,704.0,0.0,17
8936051,71488965920,449.0,380.0,160.0,0,0.806,704.0,0.0,17
8936052,71488973920,450.0,397.0,182.0,0,0.817,704.0,0.0,17
8936053,71488981917,460.0,412.0,201.0,0,0.814,704.0,0.0,17
8936054,71488989920,448.0,421.0,217.0,0,0.803,704.0,0.0,17
8936055,71488997920,450.0,428.0,229.0,0,0.774,704.0,0.0,17
8936056,71489005920,436.0,430.0,239.0,0,0.76,704.0,0.0,17
8936057,71489013916,420.0,428.0,244.0,0,0.711,704.0,0.0,17
8936058,71489021916,412.0,424.0,246.0,0,0.681,704.0,0.0,17
8936059,71489029917,383.0,414.0,245.0,1,0.669,704.0,0.0,17
8936060,71489037920,370.0,403.0,240.0,0,0.703,704.0,0.0,17
8936061,71489045920,344.0,389.0,232.0,0,0.726,704.0,0.0,17
8936062,71489053921,318.0,372.0,221.0,0,0.745,704.0,0.0,17
8936063,71489061917,296.0,353.0,208.0,0,0.75,704.0,0.0,17
8936064,71489069919,260.0,331.0,192.0,0,0.758,704.0,0.0,17
8936065,71489077920,243.0,309.0,174.0,0,0.75,704.0,0.0,17
8936066,71489085918,215.0,287.0,154.0,0,0.737,704.0,0.0,17
8936067,71489093918,188.0,263.0,133.0,0,0.711,704.0,0.0,17
8936068,71489101917,171.0,240.0,112.0,0,0.677,704.0,0.0,17
8936069,71489109917,148.0,218.0,90.0,0,0.647,704.0,0.0,17
8936070,71489117920,140.0,199.0,69.0,0,0.605,704.0,0.0,17
8936071,71489125918,124.0,181.0,49.0,0,0.564,704.0,0.0,17
8936072,71489133920,116.0,165.0,30.0,0,0.526,704.0,0.0,17
8936073,71489141920,115.0,153.0,13.0,0,0.484,704.0,0.0,17
8936074,71489149917,104.0,141.0,-2.0,0,0.458,704.0,0.0,17
8936075,71489157920,103.0,132.0,-16.0,0,0.47,704.0,0.0,17
8936076,71489165917,99.0,124.0,-28.0,0,0.471,704.0,0.0,17
8936077,71489173918,92.0,116.0,-38.0,0,0.469,704.0,0.0,17
8936078,71489181920,96.0,111.0,-47.0,0,0.474,704.0,0.0,17
8936079,71489189918,82.0,104.0,-55.0,0,0.479,704.0,0.0,17
8936080,71489197918,82.0,99.0,-63.0,0,0.493,704.0,0.0,17
8936081,71489205920,70.0,92.0,-69.0,0,0.484,704.0,0.0,17
8936082,71489213916,56.0,83.0,-77.0,0,0.517,704.0,0.0,17
8936083,71489221920,50.0,75.0,-84.0,0,0.52,704.0,0.0,17
8936084,71489229918,23.0,62.0,-93.0,0,0.555,704.0,0.0,17
8936085,71489237920,13.0,50.0,-102.0,0,0.57,704.0,0.0,17
8936086,71489245920,0.0,38.0,-112.0,0,0.597,704.0,0.0,19
8936087,71489253920,0.0,29.0,-121.0,0,0.601,704.0,0.0,19
8936088,71489261920,0.0,22.0,-130.0,0,0.615,704.0,0.0,19
8936089,71489269920,0.0,17.0,-137.0,0,0.607,704.0,0.0,19
8936090,71489277920,0.0,13.0,-143.0,0,0.606,704.0,0.0,19
8936091,71489285920,0.0,10.0,-148.0,0,0.603,704.0,0.0,19
8936092,71489293920,0.0,7.0,-152.0,0,0.599,704.0,0.0,19
8936093,71489301920,0.0,5.0,-155.0,0,0.594,704.0,0.0,19
8936094,71489309920,0.0,4.0,-157.0,0,0.588,704.0,0.0,19
8936095,71489317920,0.0,3.0,-159.0,0,0.59,704.0,0.0,19
8936096,71489325920,0.0,2.0,-160.0,0,0.582,704.0,0.0,19
8936097,71489333917,0.0,2.0,-160.0,1,0.573,704.0,0.0,19
8936098,71489341920,0.0,1.0,-160.0,0,0.572,704.0,0.0,19
8936099,71489349921,0.0,1.0,-160.0,0,0.572,704.0,0.0,19
8936100,71489357920,0.0,1.0,-160.0,0,0.571,704.0,0.0,19
8936101,71489365920,0.0,1.0,-160.0,0,0.57,704.0,0.0,19
8936102,71489373920,0.0,0.0,-159.0,0,0.576,704.0,0.0,19
8936103,71489381917,5.0,2.0,-158.0,0,0.574,704.0,0.0,17
8936104,71489389917,5.0,2.0,-157.0,0,0.571,704.0,0.0,17
8936105,71489397920,26.0,8.0,-154.0,0,0.585,704.0,0.0,17
8936106,71489405917,35.0,15.0,-150.0,0,0.588,704.0,0.0,17
8936107,71489413918,45.0,22.0,-144.0,0,0.598,704.0,0.0,17
8936108,71489421916,64.0,32.0,-138.0,0,0.589,704.0,0.0,17
8936109,71489429920,71.0,42.0,-130.0,0,0.596,704.0,0.0,17
8936110,71489437920,90.0,53.0,-121.0,0,0.592,704.0,0.0,17
8936111,71489445920,100.0,65.0,-111.0,0,0.586,704.0,0.0,17
8936112,71489453920,107.0,75.0,-100.0,0,0.577,704.0,0.0,17
8936113,71489461916,125.0,87.0,-90.0,0,0.549,704.0,0.0,17
8936114,71489469918,125.0,96.0,-79.0,0,0.54,704.0,0.0,17
8936115,71489477917,140.0,107.0,-69.0,0,0.512,704.0,0.0,17
8936116,71489485920,144.0,116.0,-58.0,0,0.503,704.0,0.0,17
8936117,71489493917,143.0,122.0,-49.0,0,0.466,704.0,0.0,17
8936118,71489501920,152.0,130.0,-40.0,0,0.451,704.0,0.0,17
8936119,71489509918,146.0,134.0,-33.0,0,0.418,704.0,0.0,17
8936120,71489517920,157.0,139.0,-26.0,0,0.406,704.0,0.0,17
8936121,71489525920,161.0,145.0,-20.0,0,0.385,704.0,0.0,17
8936122,71489533921,168.0,150.0,-14.0,0,0.375,704.0,0.0,17
8936123,71489541919,192.0,160.0,-6.0,0,0.401,704.0,0.0,17
8936124,71489549920,205.0,171.0,2.0,0,0.414,704.0,0.0,17
8936125,71489557920,241.0,188.0,13.0,0,0.463,704.0,0.0,17
8936126,71489565917,273.0,209.0,26.0,0,0.505,704.0,0.0,17
8936127,71489573920,306.0,232.0,42.0,0,0.561,704.0,0.0,17
8936128,71489581920,352.0,261.0,62.0,0,0.627,704.0,0.0,17
8936129,71489589921,382.0,291.0,84.0,0,0.677,704.0,0.0,17
8936130,71489597920,435.0,326.0,109.0,0,0.734,704.0,0.0,17
8936131,71489605921,472.0,361.0,137.0,0,0.788,704.0,0.0,17
8936132,71489613921,503.0,395.0,167.0,0,0.833,704.0,0.0,17
8936133,71489621918,540.0,431.0,197.0,0,0.865,704.0,0.0,17
8936134,71489629920,557.0,461.0,227.0,0,0.889,704.0,0.0,17
8936135,71489637921,577.0,489.0,256.0,0,0.904,704.0,0.0,17
8936136,71489645916,586.0,513.0,282.0,0,0.904,704.0,0.0,17
8936137,71489653920,582.0,530.0,306.0,0,0.902,704.0,0.0,17
8936138,71489661920,583.0,542.0,325.0,0,0.876,704.0,0.0,17
8936139,71489669918,560.0,547.0,339.0,0,0.838,704.0,0.0,17
8936140,71489677921,550.0,548.0,349.0,0,0.801,704.0,0.0,17
8936141,71489685918,526.0,542.0,354.0,0,0.751,704.0,0.0,17
8936142,71489693921,496.0,531.0,354.0,1,0.702,704.0,0.0,17
8936143,71489701920,472.0,517.0,349.0,0,0.746,704.0,0.0,17
8936144,71489709920,434.0,497.0,339.0,0,0.791,704.0,0.0,17
8936145,71489717921,408.0,475.0,325.0,0,0.822,704.0,0.0,17
8936146,71489725917,370.0,450.0,307.0,0,0.844,704.0,0.0,17
8936147,71489733918,330.0,421.0,286.0,0,0.851,704.0,0.0,17
8936148,71489741920,298.0,391.0,262.0,0,0.849,704.0,0.0,17
8936149,71489749917,249.0,357.0,234.0,0,0.841,704.0,0.0,17
8936150,71489757920,223.0,324.0,205.0,0,0.812,704.0,0.0,17
8936151,71489765921,189.0,291.0,175.0,0,0.777,704.0,0.0,17
8936152,71489773917,161.0,260.0,144.0,0,0.736,704.0,0.0,17
8936153,71489781921,148.0,233.0,114.0,0,0.686,704.0,0.0,17
8936154,71489789920,124.0,206.0,86.0,0,0.635,704.0,0.0,17
8936155,71489797921,116.0,184.0,59.0,0,0.588,704.0,0.0,17
8936156,71489805918,101.0,164.0,34.0,0,0.542,704.0,0.0,17
8936157,71489813920,86.0,145.0,11.0,0,0.507,704.0,0.0,17
8936158,71489821918,86.0,131.0,-10.0,0,0.522,704.0,0.0,17
8936159,71489829918,68.0,116.0,-29.0,0,0.535,704.0,0.0,17
8936160,71489837920,65.0,103.0,-45.0,0,0.535,704.0,0.0,17
8936161,71489845920,58.0,92.0,-60.0,0,0.549,704.0,0.0,17
8936162,71489853917,44.0,81.0,-74.0,0,0.561,704.0,0.0,17
8936163,71489861920,46.0,72.0,-86.0,0,0.562,704.0,0.0,17
8936164,71489869920,31.0,62.0,-98.0,0,0.579,704.0,0.0,17
8936165,71489877921,33.0,55.0,-107.0,0,0.565,704.0,0.0,17
8936166,71489885917,26.0,48.0,-116.0,0,0.577,704.0,0.0,17
8936167,71489893918,24.0,42.0,-124.0,0,0.578,704.0,0.0,17
8936168,71489901920,35.0,40.0,-129.0,0,0.557,704.0,0.0,17
8936169,71489909920,24.0,36.0,-134.0,0,0.564,704.0,0.0,17
8936170,71489917921,31.0,35.0,-138.0,0,0.559,704.0,0.0,17
8936171,71489925916,31.0,34.0,-141.0,0,0.554,704.0,0.0,17
8936172,71489933917,34.0,34.0,-142.0,0,0.537,704.0,0.0,17
8936173,71489941918,46.0,37.0,-142.0,1,0.528,704.0,0.0,17
8936174,71489949919,42.0,38.0,-142.0,0,0.527,704.0,0.0,17
8936175,71489957920,52.0,42.0,-140.0,0,0.54,704.0,0.0,17
8936176,71489965918,55.0,45.0,-138.0,0,0.537,704.0,0.0,17
8936177,71489973916,56.0,48.0,-135.0,0,0.541,704.0,0.0,17
8936178,71489981920,68.0,52.0,-131.0,0,0.543,704.0,0.0,17
8936179,71489989920,62.0,55.0,-128.0,0,0.53,704.0,0.0,17
8936180,71489997920,72.0,59.0,-124.0,0,0.532,704.0,0.0,17
8936181,71490005920,73.0,62.0,-120.0,0,0.526,704.0,0.0,17
8936182,71490013921,73.0,65.0,-116.0,0,0.52,704.0,0.0,17
8936183,71490021920,81.0,69.0,-112.0,0,0.513,704.0,0.0,17
8936184,71490029920,74.0,70.0,-109.0,0,0.5,704.0,0.0,17
8936185,71490037919,77.0,72.0,-106.0,0,0.495,704.0,0.0,17
8936186,71490045917,76.0,73.0,-103.0,0,0.49,704.0,0.0,17
8936187,71490053920,77.0,74.0,-101.0,0,0.478,704.0,0.0,17
8936188,71490061918,85.0,77.0,-98.0,0,0.482,704.0,0.0,17
8936189,71490069920,75.0,76.0,-96.0,0,0.47,704.0,0.0,17
8936190,71490077920,83.0,78.0,-94.0,0,0.466,704.0,0.0,17
8936191,71490085920,82.0,79.0,-92.0,0,0.463,704.0,0.0,17
8936192,71490093918,79.0,79.0,-91.0,0,0.452,704.0,0.0,17
8936193,71490101916,86.0,81.0,-89.0,0,0.457,704.0,0.0,17
8936194,71490109921,79.0,80.0,-88.0,0,0.446,704.0,0.0,17
8936195,71490117920,85.0,81.0,-86.0,0,0.451,704.0,0.0,17
8936196,71490125920,87.0,83.0,-85.0,0,0.44,704.0,0.0,17
8936197,71490133917,90.0,84.0,-83.0,0,0.444,704.0,0.0,17
8936198,71490141920,101.0,88.0,-80.0,0,0.448,704.0,0.0,17
8936199,71490149920,95.0,90.0,-78.0,0,0.435,704.0,0.0,17
8936200,71490157920,108.0,94.0,-75.0,0,0.439,704.0,0.0,17
8936201,71490165916,106.0,97.0,-72.0,0,0.433,704.0,0.0,17
8936202,71490173920,107.0,100.0,-69.0,0,0.428,704.0,0.0,17
8936203,71490181920,115.0,103.0,-65.0,0,0.43,704.0,0.0,17
8936204,71490189920,111.0,105.0,-62.0,0,0.415,704.0,0.0,17
8936205,71490197918,121.0,109.0,-59.0,0,0.41,704.0,0.0,17
8936206,71490205920,126.0,113.0,-55.0,0,0.412,704.0,0.0,17
8936207,71490213918,131.0,117.0,-51.0,0,0.405,704.0,0.0,17
8936208,71490221916,155.0,127.0,-46.0,0,0.406,704.0,0.0,17
8936209,71490229920,165.0,136.0,-39.0,0,0.414,704.0,0.0,17
8936210,71490237919,195.0,150.0,-30.0,0,0.42,704.0,0.0,17
8936211,71490245916,220.0,167.0,-19.0,0,0.423,704.0,0.0,17
8936212,71490253919,248.0,187.0,-6.0,0,0.443,704.0,0.0,17
8936213,71490261918,293.0,212.0,11.0,0,0.502,704.0,0.0,17
8936214,71490269920,322.0,239.0,31.0,0,0.555,704.0,0.0,17
8936215,71490277917,365.0,270.0,53.0,0,0.602,704.0,0.0,17
8936216,71490285920,396.0,300.0,78.0,0,0.659,704.0,0.0,17
8936217,71490293917,423.0,330.0,103.0,0,0.697,704.0,0.0,17
8936218,71490301920,461.0,362.0,130.0,0,0.746,704.0,0.0,17
8936219,71490309917,477.0,390.0,157.0,0,0.781,704.0,0.0,17
8936220,71490317920,507.0,418.0,184.0,0,0.811,704.0,0.0,17
8936221,71490325920,525.0,444.0,210.0,0,0.831,704.0,0.0,17
8936222,71490333920,539.0,467.0,235.0,0,0.846,704.0,0.0,17
8936223,71490341917,554.0,488.0,258.0,0,0.85,704.0,0.0,17
8936224,71490349920,548.0,503.0,278.0,0,0.841,704.0,0.0,17
8936225,71490357920,546.0,513.0,294.0,0,0.818,704.0,0.0,17
8936226,71490365918,528.0,517.0,307.0,0,0.797,704.0,0.0,17
8936227,71490373920,505.0,514.0,314.0,0,0.744,704.0,0.0,17
8936228,71490381920,485.0,507.0,317.0,0,0.707,704.0,0.0,17
8936229,71490389917,443.0,491.0,313.0,1,0.712,704.0,0.0,17
8936230,71490397918,412.0,472.0,305.0,0,0.743,704.0,0.0,17
8936231,71490405920,368.0,447.0,291.0,0,0.788,704.0,0.0,17
8936232,71490413919,319.0,416.0,272.0,0,0.813,704.0,0.0,17
8936233,71490421920,284.0,384.0,249.0,0,0.819,704.0,0.0,17
8936234,71490429920,225.0,345.0,222.0,0,0.813,704.0,0.0,17
8936235,71490437918,186.0,307.0,190.0,0,0.796,704.0,0.0,17
8936236,71490445920,142.0,267.0,157.0,0,0.756,704.0,0.0,17
8936237,71490453920,92.0,224.0,120.0,0,0.714,704.0,0.0,17
8936238,71490461920,60.0,185.0,83.0,0,0.659,704.0,0.0,17
8936239,71490469916,20.0,145.0,45.0,0,0.606,704.0,0.0,17
8936240,71490477916,2.0,110.0,8.0,0,0.554,704.0,0.0,17
8936241,71490485920,0.0,83.0,-25.0,0,0.577,704.0,0.0,19
8936242,71490493920,0.0,63.0,-55.0,0,0.607,704.0,0.0,19
8936243,71490501920,0.0,48.0,-80.0,0,0.619,704.0,0.0,19
8936244,71490509917,0.0,36.0,-101.0,0,0.625,704.0,0.0,19
8936245,71490517920,0.0,27.0,-119.0,0,0.63,704.0,0.0,19
8936246,71490525917,0.0,21.0,-132.0,0,0.609,704.0,0.0,19
8936247,71490533921,0.0,16.0,-144.0,0,0.617,704.0,0.0,19
8936248,71490541917,0.0,12.0,-152.0,0,0.594,704.0,0.0,19
8936249,71490549921,0.0,9.0,-159.0,0,0.594,704.0,0.0,19
8936250,71490557920,0.0,7.0,-164.0,0,0.584,704.0,0.0,19
8936251,71490565918,0.0,5.0,-168.0,0,0.581,704.0,0.0,19
8936252,71490573921,0.0,4.0,-170.0,0,0.567,704.0,0.0,19
8936253,71490581920,0.0,3.0,-172.0,0,0.569,704.0,0.0,19
8936254,71490589920,0.0,2.0,-173.0,0,0.563,704.0,0.0,19
8936255,71490597920,0.0,2.0,-174.0,0,0.563,704.0,0.0,19
8936256,71490605920,0.0,1.0,-174.0,1,0.556,704.0,0.0,19
8936257,71490613917,0.0,1.0,-174.0,0,0.555,704.0,0.0,19
8936258,71490621920,9.0,3.0,-173.0,0,0.561,704.0,0.0,17
8936259,71490629920,3.0,3.0,-172.0,0,0.56,704.0,0.0,17
8936260,71490637918,13.0,5.0,-171.0,0,0.558,704.0,0.0,17
8936261,71490645920,21.0,9.0,-168.0,0,0.569,704.0,0.0,17
8936262,71490653920,20.0,12.0,-165.0,0,0.565,704.0,0.0,17
8936263,71490661921,34.0,17.0,-161.0,0,0.568,704.0,0.0,17
8936264,71490669916,35.0,21.0,-157.0,0,0.563,704.0,0.0,17
8936265,71490677916,42.0,26.0,-152.0,0,0.564,704.0,0.0,17
8936266,71490685920,47.0,31.0,-147.0,0,0.557,704.0,0.0,17
8936267,71490693920,44.0,34.0,-142.0,0,0.55,704.0,0.0,17
8936268,71490701917,60.0,41.0,-137.0,0,0.543,704.0,0.0,17
8936269,71490709920,56.0,44.0,-132.0,0,0.536,704.0,0.0,17
8936270,71490717920,67.0,50.0,-126.0,0,0.536,704.0,0.0,17
8936271,71490725917,68.0,54.0,-121.0,0,0.52,704.0,0.0,17
8936272,71490733917,67.0,57.0,-116.0,0,0.513,704.0,0.0,17
8936273,71490741917,76.0,62.0,-111.0,0,0.506,704.0,0.0,17
8936274,71490749918,69.0,64.0,-107.0,0,0.492,704.0,0.0,17
8936275,71490757920,79.0,67.0,-103.0,0,0.486,704.0,0.0,17
8936276,71490765916,76.0,69.0,-99.0,0,0.48,704.0,0.0,17
8936277,71490773920,76.0,71.0,-95.0,0,0.474,704.0,0.0,17
8936278,71490781918,94.0,77.0,-91.0,0,0.468,704.0,0.0,17
8936279,71490789921,87.0,79.0,-87.0,0,0.462,704.0,0.0,17
8936280,71490797920,100.0,84.0,-83.0,0,0.456,704.0,0.0,17
8936281,71490805921,101.0,88.0,-79.0,0,0.45,704.0,0.0,17
8936282,71490813921,98.0,91.0,-75.0,0,0.444,704.0,0.0,17
8936283,71490821921,108.0,95.0,-71.0,0,0.438,704.0,0.0,17
8936284,71490829918,98.0,96.0,-67.0,0,0.432,704.0,0.0,17
8936285,71490837920,107.0,98.0,-64.0,0,0.419,704.0,0.0,17
8936286,71490845918,105.0,100.0,-61.0,0,0.414,704.0,0.0,17
8936287,71490853918,100.0,100.0,-59.0,0,0.402,704.0,0.0,17
8936288,71490861920,112.0,103.0,-57.0,0,0.399,704.0,0.0,17
8936289,71490869920,107.0,104.0,-55.0,0,0.395,704.0,0.0,17
8936290,71490877918,113.0,106.0,-52.0,0,0.398,704.0,0.0,17
8936291,71490885919,112.0,108.0,-50.0,0,0.386,704.0,0.0,17
8936292,71490893920,112.0,109.0,-48.0,0,0.382,704.0,0.0,17
8936293,71490901920,127.0,113.0,-46.0,0,0.379,704.0,0.0,17
8936294,71490909918,119.0,115.0,-43.0,0,0.382,704.0,0.0,17
8936295,71490917917,131.0,119.0,-40.0,0,0.377,704.0,0.0,17
8936296,71490925920,127.0,121.0,-38.0,0,0.365,704.0,0.0,17
8936297,71490933920,125.0,122.0,-35.0,0,0.368,704.0,0.0,17
8936298,71490941916,136.0,125.0,-33.0,0,0.356,704.0,0.0,17
8936299,71490949916,131.0,127.0,-30.0,0,0.359,704.0,0.0,17
8936300,71490957916,142.0,130.0,-27.0,0,0.354,704.0,0.0,17
8936301,71490965920,148.0,135.0,-24.0,0,0.35,704.0,0.0,17
8936302,71490973920,156.0,140.0,-20.0,0,0.352,704.0,0.0,17
8936303,71490981919,186.0,151.0,-14.0,0,0.363,704.0,0.0,17
8936304,71490989920,201.0,163.0,-7.0,0,0.381,704.0,0.0,17
8936305,71490997921,236.0,181.0,4.0,0,0.432,704.0,0.0,17
8936306,71491005918,266.0,201.0,17.0,0,0.468,704.0,0.0,17
8936307,71491013920,291.0,223.0,33.0,0,0.516,704.0,0.0,17
8936308,71491021920,332.0,250.0,51.0,0,0.558,704.0,0.0,17
8936309,71491029918,351.0,274.0,71.0,0,0.602,704.0,0.0,17
8936310,71491037920,383.0,301.0,93.0,0,0.648,704.0,0.0,17
8936311,71491045918,411.0,327.0,115.0,0,0.679,704.0,0.0,17
8936312,71491053920,431.0,352.0,138.0,0,0.716,704.0,0.0,17
8936313,71491061920,452.0,377.0,161.0,0,0.744,704.0,0.0,17
8936314,71491069920,461.0,397.0,183.0,0,0.762,704.0,0.0,17
8936315,71491077921,476.0,416.0,204.0,0,0.776,704.0,0.0,17
8936316,71491085917,479.0,431.0,222.0,0,0.77,704.0,0.0,17
8936317,71491093920,471.0,441.0,238.0,0,0.767,704.0,0.0,17
8936318,71491101916,477.0,450.0,251.0,0,0.751,704.0,0.0,17
8936319,71491109917,460.0,452.0,260.0,0,0.721,704.0,0.0,17
8936320,71491117920,452.0,452.0,266.0,0,0.697,704.0,0.0,17
8936321,71491125921,436.0,448.0,269.0,0,0.672,704.0,0.0,17
8936322,71491133920,411.0,439.0,268.0,1,0.654,704.0,0.0,17
8936323,71491141919,392.0,428.0,263.0,0,0.681,704.0,0.0,17
8936324,71491149920,357.0,411.0,255.0,0,0.699,704.0,0.0,17
8936325,71491157920,333.0,392.0,243.0,0,0.722,704.0,0.0,17
8936326,71491165920,300.0,370.0,228.0,0,0.732,704.0,0.0,17
8936327,71491173920,263.0,344.0,209.0,0,0.741,704.0,0.0,17
8936328,71491181920,234.0,317.0,188.0,0,0.73,704.0,0.0,17
8936329,71491189917,189.0,286.0,164.0,0,0.717,704.0,0.0,17
8936330,71491197920,164.0,256.0,138.0,0,0.692,704.0,0.0,17
8936331,71491205920,127.0,225.0,110.0,0,0.662,704.0,0.0,17
8936332,71491213921,92.0,193.0,82.0,0,0.621,704.0,0.0,17
8936333,71491221920,71.0,163.0,53.0,0,0.584,704.0,0.0,17
8936334,71491229920,35.0,132.0,23.0,0,0.547,704.0,0.0,17
8936335,71491237920,10.0,103.0,-6.0,0,0.532,704.0,0.0,17
8936336,71491245920,0.0,78.0,-34.0,0,0.563,704.0,0.0,19
8936337,71491253921,0.0,59.0,-59.0,0,0.581,704.0,0.0,19
8936338,71491261920,0.0,45.0,-81.0,0,0.594,704.0,0.0,19
8936339,71491269920,0.0,34.0,-99.0,0,0.593,704.0,0.0,19
8936340,71491277920,0.0,26.0,-115.0,0,0.6,704.0,0.0,19
8936341,71491285920,0.0,19.0,-127.0,0,0.585,704.0,0.0,19
8936342,71491293920,0.0,15.0,-137.0,0,0.582,704.0,0.0,19
8936343,71491301918,0.0,11.0,-144.0,0,0.567,704.0,0.0,19
8936344,71491309920,0.0,8.0,-150.0,0,0.566,704.0,0.0,19
8936345,71491317916,0.0,6.0,-155.0,0,0.564,704.0,0.0,19
8936346,71491325920,0.0,5.0,-158.0,0,0.552,704.0,0.0,19
8936347,71491333920,0.0,4.0,-161.0,0,0.556,704.0,0.0,19
8936348,71491341921,0.0,3.0,-162.0,0,0.542,704.0,0.0,19
8936349,71491349918,0.0,2.0,-163.0,0,0.542,704.0,0.0,19
8936350,71491357920,0.0,2.0,-164.0,0,0.543,704.0,0.0,19
8936351,71491365917,0.0,1.0,-164.0,1,0.536,704.0,0.0,19
8936352,71491373921,0.0,1.0,-164.0,0,0.535,704.0,0.0,19
8936353,71491381921,0.0,1.0,-164.0,0,0.535,704.0,0.0,19
8936354,71491389920,0.0,1.0,-163.0,0,0.54,704.0,0.0,19
8936355,71491397920,0.0,0.0,-163.0,1,0.533,704.0,0.0,19
8936356,71491405920,0.0,0.0,-162.0,0,0.538,704.0,0.0,19
8936357,71491413917,0.0,0.0,-161.0,0,0.536,704.0,0.0,19
8936358,71491421920,0.0,0.0,-160.0,0,0.535,704.0,0.0,19
8936359,71491429916,0.0,0.0,-160.0,1,0.527,704.0,0.0,19
8936360,71491437920,0.0,0.0,-159.0,0,0.533,704.0,0.0,19
8936361,71491445920,0.0,0.0,-158.0,0,0.531,704.0,0.0,19
8936362,71491453920,0.0,0.0,-157.0,0,0.529,704.0,0.0,19
8936363,71491461920,0.0,0.0,-156.0,0,0.527,704.0,0.0,19
8936364,71491469920,0.0,0.0,-155.0,0,0.525,704.0,0.0,19
8936365,71491477918,0.0,0.0,-154.0,0,0.523,704.0,0.0,19
8936366,71491485918,0.0,0.0,-153.0,0,0.521,704.0,0.0,19
8936367,71491493918,0.0,0.0,-152.0,0,0.518,704.0,0.0,19
8936368,71491501920,0.0,0.0,-151.0,0,0.516,704.0,0.0,19
8936369,71491509918,0.0,0.0,-150.0,0,0.514,704.0,0.0,19
8936370,71491517920,0.0,0.0,-149.0,0,0.511,704.0,0.0,19
8936371,71491525917,0.0,0.0,-148.0,0,0.509,704.0,0.0,19
8936372,71491533920,0.0,0.0,-147.0,0,0.506,704.0,0.0,19
8936373,71491541920,0.0,0.0,-146.0,0,0.504,704.0,0.0,19
8936374,71491549920,0.0,0.0,-145.0,0,0.501,704.0,0.0,19
8936375,71491557917,0.0,0.0,-144.0,0,0.499,704.0,0.0,19
8936376,71491565918,0.0,0.0,-143.0,0,0.497,704.0,0.0,19
8936377,71491573918,0.0,0.0,-142.0,0,0.494,704.0,0.0,19
8936378,71491581921,0.0,0.0,-141.0,0,0.492,704.0,0.0,19
8936379,71491589920,0.0,0.0,-140.0,0,0.49,704.0,0.0,19
8936380,71491597920,0.0,0.0,-139.0,0,0.487,704.0,0.0,19
8936381,71491605921,0.0,0.0,-138.0,0,0.0,0.0,0.0,2
8936382,71491613917,0.0,0.0,-137.0,0,0.0,0.0,0.0,2
8936383,71491621920,20.0,5.0,-135.0,0,0.0,0.0,0.0,0
8936384,71491629920,21.0,9.0,-132.0,0,0.0,0.0,0.0,0
8936385,71491637920,38.0,16.0,-128.0,0,0.0,0.0,0.0,0
8936386,71491645918,47.0,23.0,-122.0,0,0.0,0.0,0.0,0
8936387,71491653920,53.0,31.0,-116.0,0,0.0,0.0,0.0,0
8936388,71491661918,76.0,42.0,-108.0,0,0.0,0.0,0.0,0
8936389,71491669920,77.0,50.0,-100.0,0,0.0,0.0,0.0,0
8936390,71491677917,93.0,61.0,-91.0,0,0.0,0.0,0.0,0
8936391,71491685920,102.0,71.0,-82.0,0,0.0,0.0,0.0,0
8936392,71491693917,106.0,79.0,-73.0,0,0.0,0.0,0.0,0
8936393,71491701920,122.0,90.0,-63.0,0,0.0,0.0,0.0,0
8936394,71491709918,120.0,97.0,-54.0,0,0.0,0.0,0.0,0
8936395,71491717920,136.0,106.0,-45.0,0,0.0,0.0,0.0,0
8936396,71491725921,148.0,116.0,-35.0,0,0.0,0.0,0.0,0
8936397,71491733916,159.0,127.0,-26.0,0,0.0,0.0,0.0,0
8936398,71491741920,189.0,142.0,-15.0,0,0.0,0.0,0.0,0
8936399,71491749916,206.0,157.0,-2.0,0,0.0,0.0,0.0,0
8936400,71491757918,243.0,178.0,13.0,0,0.0,0.0,0.0,0
8936401,71491765920,276.0,202.0,30.0,0,0.0,0.0,0.0,0
8936402,71491773920,308.0,228.0,49.0,0,0.0,0.0,0.0,0
8936403,71491781917,351.0,258.0,71.0,0,0.0,0.0,0.0,0
8936404,71491789920,376.0,286.0,95.0,0,0.0,0.0,0.0,0
8936405,71491797916,416.0,318.0,121.0,0,0.0,0.0,0.0,0
8936406,71491805920,445.0,349.0,147.0,0,0.0,0.0,0.0,0
8936407,71491813921,468.0,378.0,174.0,0,0.0,0.0,0.0,0
8936408,71491821921,498.0,407.0,201.0,0,0.0,0.0,0.0,0
8936409,71491829920,503.0,430.0,227.0,0,0.0,0.0,0.0,0
8936410,71491837921,524.0,453.0,251.0,0,0.0,0.0,0.0,0
8936411,71491845916,529.0,471.0,273.0,0,0.0,0.0,0.0,0
8936412,71491853920,525.0,484.0,291.0,0,0.0,0.0,0.0,0
8936413,71491861921,529.0,495.0,307.0,0,0.0,0.0,0.0,1
8936414,71491869917,511.0,499.0,319.0,0,0.0,0.0,0.0,1
8936415,71491877920,503.0,500.0,327.0,0,0.0,0.0,0.0,1
8936416,71491885921,488.0,497.0,331.0,0,0.0,0.0,0.0,1
8936417,71491893921,461.0,488.0,331.0,0,0.0,0.0,0.0,1
8936418,71491901916,446.0,478.0,327.0,0,0.0,0.0,0.0,1
8936419,71491909917,412.0,462.0,319.0,0,0.0,0.0,0.0,1
8936420,71491917920,392.0,445.0,309.0,0,0.0,0.0,0.0,1
8936421,71491925920,364.0,425.0,295.0,0,0.0,0.0,0.0,1
8936422,71491933921,333.0,403.0,278.0,0,0.0,0.0,0.0,1
8936423,71491941920,317.0,382.0,260.0,0,0.0,0.0,0.0,1
8936424,71491949920,280.0,357.0,239.0,0,0.0,0.0,0.0,1
8936425,71491957920,261.0,334.0,217.0,0,0.0,0.0,0.0,1
8936426,71491965920,236.0,310.0,195.0,0,0.0,0.0,0.0,1
8936427,71491973920,212.0,286.0,172.0,0,0.0,0.0,0.0,1
8936428,71491981921,203.0,266.0,149.0,0,0.0,0.0,0.0,1
8936429,71491989916,179.0,245.0,127.0,0,0.0,0.0,0.0,1
8936430,71491997916,173.0,228.0,106.0,0,0.0,0.0,0.0,1
8936431,71492005920,163.0,212.0,87.0,0,0.0,0.0,0.0,1
8936432,71492013916,150.0,197.0,68.0,0,0.0,0.0,0.0,1
8936433,71492021921,155.0,187.0,52.0,0,0.0,0.0,0.0,1
8936434,71492029917,141.0,176.0,38.0,0,0.0,0.0,0.0,1
8936435,71492037920,145.0,168.0,25.0,0,0.0,0.0,0.0,1
8936436,71492045918,144.0,162.0,15.0,0,0.0,0.0,0.0,1
8936437,71492053920,140.0,157.0,5.0,0,0.0,0.0,0.0,1
8936438,71492061917,150.0,155.0,-2.0,0,0.0,0.0,0.0,1
8936439,71492069919,144.0,153.0,-7.0,0,0.0,0.0,0.0,1
8936440,71492077921,156.0,153.0,-11.0,0,0.0,0.0,0.0,1
8936441,71492085920,156.0,154.0,-13.0,0,0.0,0.0,0.0,1
8936442,71492093919,154.0,154.0,-15.0,0,0.0,0.0,0.0,1
8936443,71492101921,167.0,157.0,-16.0,0,0.0,0.0,0.0,1
8936444,71492109920,160.0,158.0,-16.0,0,0.0,0.0,0.0,1
8936445,71492117921,170.0,161.0,-15.0,0,0.568,0.0,0.0,1
8936446,71492125916,172.0,164.0,-13.0,0,0.569,0.0,0.0,1
8936447,71492133921,172.0,166.0,-12.0,0,0.548,0.0,0.0,1
8936448,71492141920,182.0,170.0,-9.0,0,0.561,0.0,0.0,1
8936449,71492149920,177.0,171.0,-7.0,0,0.54,0.0,0.0,1
8936450,71492157916,188.0,175.0,-4.0,0,0.542,0.0,0.0,1
8936451,71492165920,189.0,179.0,-2.0,0,0.522,0.0,0.0,1
8936452,71492173917,186.0,180.0,1.0,0,0.525,0.0,0.0,1
8936453,71492181921,199.0,185.0,4.0,0,0.516,0.0,0.0,1
8936454,71492189917,190.0,186.0,6.0,0,0.498,0.0,0.0,1
8936455,71492197917,199.0,189.0,9.0,0,0.502,0.0,0.0,1
8936456,71492205920,201.0,192.0,12.0,0,0.494,0.0,0.0,1
8936457,71492213920,199.0,194.0,14.0,0,0.477,0.0,0.0,1
8936458,71492221916,208.0,197.0,17.0,0,0.481,0.0,0.0,1
8936459,71492229920,199.0,198.0,19.0,0,0.464,0.0,0.0,1
8936460,71492237919,207.0,200.0,21.0,0,0.459,0.0,0.0,1
8936461,71492245920,208.0,202.0,23.0,0,0.454,0.0,0.0,1
8936462,71492253920,204.0,202.0,24.0,0,0.439,0.0,0.0,1
8936463,71492261917,212.0,205.0,26.0,0,0.446,0.0,0.0,1
8936464,71492269920,204.0,205.0,27.0,0,0.431,0.0,0.0,1
8936465,71492277921,211.0,206.0,28.0,0,0.428,0.0,0.0,1
8936466,71492285920,211.0,207.0,29.0,0,0.425,0.0,0.0,1
8936467,71492293920,205.0,207.0,30.0,0,0.422,0.0,0.0,1
8936468,71492301920,215.0,209.0,31.0,0,0.419,0.0,0.0,1
8936469,71492309920,205.0,208.0,31.0,1,0.407,0.0,0.0,1
8936470,71492317920,211.0,209.0,31.0,0,0.406,0.0,0.0,1
8936471,71492325921,208.0,208.0,32.0,0,0.415,0.0,0.0,1
8936472,71492333918,204.0,207.0,31.0,1,0.415,0.0,0.0,1
8936473,71492341920,212.0,208.0,31.0,1,0.403,0.0,0.0,1
8936474,71492349920,204.0,207.0,31.0,0,0.402,0.0,0.0,1
8936475,71492357916,210.0,208.0,31.0,0,0.401,0.0,0.0,1
8936476,71492365921,208.0,208.0,31.0,0,0.4,0.0,0.0,1
8936477,71492373916,204.0,207.0,30.0,0,0.413,0.0,0.0,1
8936478,71492381917,213.0,208.0,30.0,1,0.4,0.0,0.0,1
8936479,71492389920,205.0,208.0,30.0,0,0.399,0.0,0.0,1
8936480,71492397920,211.0,208.0,30.0,0,0.398,0.0,0.0,1
8936481,71492405918,209.0,209.0,30.0,0,0.397,0.0,0.0,1
8936482,71492413920,204.0,207.0,30.0,0,0.397,0.0,0.0,1
8936483,71492421918,210.0,208.0,30.0,0,0.396,0.0,0.0,1
8936484,71492429920,197.0,205.0,29.0,0,0.41,0.0,0.0,1
8936485,71492437918,200.0,204.0,28.0,0,0.411,0.0,0.0,1
8936486,71492445920,196.0,202.0,26.0,0,0.427,0.0,0.0,1
8936487,71492453920,184.0,198.0,24.0,0,0.43,0.0,0.0,1
8936488,71492461917,189.0,196.0,22.0,0,0.433,0.0,0.0,1
8936489,71492469917,173.0,190.0,18.0,0,0.469,0.0,0.0,1
8936490,71492477918,175.0,186.0,15.0,0,0.46,0.0,0.0,1
8936491,71492485916,170.0,182.0,12.0,0,0.465,0.0,0.0,1
8936492,71492493918,160.0,177.0,7.0,0,0.503,0.0,0.0,1
8936493,71492501917,168.0,175.0,4.0,0,0.479,0.0,0.0,1
8936494,71492509918,164.0,172.0,1.0,0,0.484,0.0,0.0,1
8936495,71492517917,179.0,174.0,-1.0,0,0.472,0.0,0.0,1
8936496,71492525920,191.0,178.0,-1.0,1,0.444,0.0,0.0,1
8936497,71492533918,208.0,185.0,1.0,0,0.466,0.0,0.0,1
8936498,71492541920,239.0,198.0,6.0,0,0.5,0.0,0.0,1
8936499,71492549919,254.0,212.0,13.0,0,0.515,0.0,0.0,1
8936500,71492557920,292.0,231.0,24.0,0,0.546,0.0,0.0,1
8936501,71492565920,320.0,253.0,38.0,0,0.549,0.0,0.0,1
8936502,71492573917,343.0,275.0,54.0,0,0.534,0.0,0.0,1
8936503,71492581920,380.0,300.0,72.0,0,0.538,0.0,0.0,1
8936504,71492589916,398.0,324.0,92.0,0,0.585,0.0,0.0,1
8936505,71492597921,428.0,349.0,113.0,0,0.629,0.0,0.0,1
8936506,71492605920,447.0,373.0,134.0,0,0.668,0.0,0.0,1
8936507,71492613918,456.0,393.0,155.0,0,0.707,0.0,0.0,1
8936508,71492621921,476.0,413.0,175.0,0,0.736,0.0,0.0,1
8936509,71492629920,472.0,427.0,193.0,0,0.75,0.0,0.0,1
8936510,71492637918,480.0,440.0,209.0,0,0.756,0.0,0.0,1
8936511,71492645920,476.0,449.0,222.0,0,0.743,0.0,0.0,1
8936512,71492653920,463.0,452.0,232.0,0,0.721,0.0,0.0,1
8936513,71492661917,460.0,454.0,239.0,0,0.692,0.0,0.0,1
8936514,71492669918,437.0,450.0,243.0,0,0.658,0.0,0.0,1
8936515,71492677921,427.0,444.0,243.0,1,0.61,0.0,0.0,1
8936516,71492685920,407.0,435.0,241.0,0,0.625,0.0,0.0,1
8936517,71492693920,380.0,422.0,234.0,0,0.671,0.0,0.0,1
8936518,71492701921,365.0,408.0,226.0,0,0.669,0.0,0.0,1
8936519,71492709918,331.0,389.0,214.0,0,0.692,0.0,0.0,1
8936520,71492717920,308.0,370.0,199.0,0,0.693,0.0,0.0,1
8936521,71492725916,280.0,348.0,182.0,0,0.677,0.0,0.0,1
8936522,71492733920,245.0,323.0,163.0,0,0.653,0.0,0.0,1
8936523,71492741917,224.0,299.0,142.0,0,0.622,0.0,0.0,1
8936524,71492749921,188.0,272.0,119.0,0,0.587,0.0,0.0,1
8936525,71492757916,165.0,246.0,96.0,0,0.543,0.0,0.0,1
8936526,71492765916,139.0,220.0,71.0,0,0.568,0.0,0.0,1
8936527,71492773919,110.0,193.0,46.0,0,0.614,0.0,0.0,1
8936528,71492781920,96.0,170.0,22.0,0,0.655,0.0,0.0,1
8936529,71492789921,66.0,145.0,-3.0,0,0.707,0.0,0.0,1
8936530,71492797919,53.0,122.0,-27.0,0,0.745,0.0,0.0,1
8936531,71492805920,35.0,101.0,-49.0,0,0.768,0.0,0.0,1
8936532,71492813919,15.0,80.0,-71.0,0,0.798,0.0,0.0,1
8936533,71492821921,9.0,63.0,-92.0,0,0.815,0.0,0.0,1
8936534,71492829920,0.0,48.0,-110.0,0,0.81,0.0,0.0,3
8936535,71492837921,0.0,36.0,-127.0,0,0.816,0.0,0.0,3
8936536,71492845918,0.0,27.0,-141.0,0,0.798,0.0,0.0,3
8936537,71492853920,0.0,21.0,-152.0,0,0.775,0.0,0.0,3
8936538,71492861920,0.0,16.0,-161.0,0,0.758,0.0,0.0,3
8936539,71492869921,0.0,12.0,-169.0,0,0.75,0.0,0.0,3
8936540,71492877917,0.0,9.0,-174.0,0,0.719,0.0,0.0,3
8936541,71492885918,0.0,7.0,-179.0,0,0.719,0.0,0.0,3
8936542,71492893920,0.0,5.0,-182.0,0,0.697,0.0,0.0,3
8936543,71492901921,6.0,5.0,-184.0,0,0.685,0.0,0.0,1
8936544,71492909920,2.0,5.0,-185.0,0,0.672,0.0,0.0,1
8936545,71492917921,12.0,6.0,-185.0,1,0.659,0.0,0.0,1
8936546,71492925920,6.0,6.0,-185.0,0,0.656,0.0,0.0,1
8936547,71492933920,0.0,5.0,-185.0,0,0.652,0.0,0.0,3
8936548,71492941918,0.0,4.0,-184.0,0,0.658,0.0,0.0,3
8936549,71492949920,0.0,3.0,-184.0,1,0.645,0.0,0.0,3
8936550,71492957920,0.0,2.0,-184.0,0,0.642,0.0,0.0,3
8936551,71492965920,0.0,2.0,-183.0,0,0.648,0.0,0.0,3
8936552,71492973920,0.0,1.0,-183.0,1,0.635,0.0,0.0,3
8936553,71492981917,0.0,1.0,-182.0,0,0.641,0.0,0.0,3
8936554,71492989917,0.0,1.0,-182.0,1,0.628,0.0,0.0,3
8936555,71492997917,0.0,1.0,-181.0,0,0.634,0.0,0.0,3
8936556,71493005918,0.0,0.0,-180.0,0,0.63,0.0,0.0,3
8936557,71493013917,0.0,0.0,-179.0,0,0.627,0.0,0.0,3
8936558,71493021920,0.0,0.0,-178.0,0,0.623,0.0,0.0,3
8936559,71493029918,0.0,0.0,-177.0,0,0.62,0.0,0.0,3
8936560,71493037921,0.0,0.0,-176.0,0,0.616,0.0,0.0,3
8936561,71493045920,0.0,0.0,-175.0,0,0.613,0.0,0.0,3
8936562,71493053920,0.0,0.0,-174.0,0,0.609,0.0,0.0,3
8936563,71493061918,0.0,0.0,-173.0,0,0.606,0.0,0.0,3
8936564,71493069920,0.0,0.0,-172.0,0,0.602,0.0,0.0,3
8936565,71493077917,0.0,0.0,-170.0,0,0.609,0.0,0.0,3
8936566,71493085920,0.0,0.0,-169.0,0,0.595,0.0,0.0,3
8936567,71493093919,2.0,1.0,-168.0,0,0.592,0.0,0.0,1
8936568,71493101920,23.0,6.0,-165.0,0,0.608,0.0,0.0,1
8936569,71493109918,28.0,11.0,-162.0,0,0.602,0.0,0.0,1
8936570,71493117920,45.0,19.0,-156.0,0,0.627,0.0,0.0,1
8936571,71493125919,55.0,28.0,-150.0,0,0.618,0.0,0.0,1
8936572,71493133920,59.0,36.0,-143.0,0,0.619,0.0,0.0,1
8936573,71493141921,74.0,45.0,-135.0,0,0.619,0.0,0.0,1
8936574,71493149920,69.0,51.0,-127.0,0,0.607,0.0,0.0,1
8936575,71493157921,79.0,58.0,-120.0,0,0.584,0.0,0.0,1
8936576,71493165918,83.0,64.0,-112.0,0,0.584,0.0,0.0,1
8936577,71493173920,82.0,68.0,-106.0,0,0.551,0.0,0.0,1
8936578,71493181921,93.0,74.0,-99.0,0,0.552,0.0,0.0,1
8936579,71493189916,87.0,77.0,-93.0,0,0.531,0.0,0.0,1
8936580,71493197917,97.0,82.0,-88.0,0,0.511,0.0,0.0,1
8936581,71493205921,101.0,87.0,-82.0,0,0.513,0.0,0.0,1
8936582,71493213917,99.0,90.0,-77.0,0,0.494,0.0,0.0,1
8936583,71493221920,112.0,95.0,-72.0,0,0.486,0.0,0.0,1
8936584,71493229916,107.0,98.0,-68.0,0,0.468,0.0,0.0,1
8936585,71493237917,115.0,102.0,-63.0,0,0.472,0.0,0.0,1
8936586,71493245920,116.0,105.0,-59.0,0,0.454,0.0,0.0,1
8936587,71493253918,115.0,108.0,-55.0,0,0.448,0.0,0.0,1
8936588,71493261920,127.0,112.0,-51.0,0,0.442,0.0,0.0,1
8936589,71493269917,122.0,115.0,-47.0,0,0.435,0.0,0.0,1
8936590,71493277920,132.0,119.0,-43.0,0,0.429,0.0,0.0,1
8936591,71493285918,132.0,122.0,-39.0,0,0.423,0.0,0.0,1
8936592,71493293920,127.0,123.0,-36.0,0,0.407,0.0,0.0,1
8936593,71493301917,143.0,128.0,-33.0,0,0.403,0.0,0.0,1
8936594,71493309919,143.0,132.0,-29.0,0,0.408,0.0,0.0,1
8936595,71493317917,160.0,139.0,-25.0,0,0.402,0.0,0.0,1
8936596,71493325920,180.0,149.0,-18.0,0,0.428,0.0,0.0,1
8936597,71493333917,197.0,160.0,-11.0,0,0.418,0.0,0.0,1
8936598,71493341918,234.0,178.0,0.0,0,0.449,0.0,0.0,1
8936599,71493349921,262.0,199.0,13.0,0,0.464,0.0,0.0,1
8936600,71493357920,304.0,224.0,30.0,0,0.523,0.0,0.0,1
8936601,71493365917,346.0,254.0,50.0,0,0.573,0.0,0.0,1
8936602,71493373920,381.0,285.0,73.0,0,0.624,0.0,0.0,1
8936603,71493381920,430.0,320.0,99.0,0,0.676,0.0,0.0,1
8936604,71493389921,460.0,354.0,127.0,0,0.725,0.0,0.0,1
8936605,71493397916,499.0,389.0,157.0,0,0.772,0.0,0.0,1
8936606,71493405920,529.0,423.0,187.0,0,0.809,0.0,0.0,1
8936607,71493413917,550.0,454.0,217.0,0,0.84,0.0,0.0,1
8936608,71493421920,580.0,484.0,247.0,0,0.866,0.0,0.0,1
8936609,71493429919,586.0,509.0,274.0,0,0.873,0.0,0.0,1
8936610,71493437920,603.0,532.0,300.0,0,0.883,0.0,0.0,1
8936611,71493445920,608.0,550.0,322.0,0,0.871,0.0,0.0,1
8936612,71493453918,599.0,562.0,341.0,0,0.858,0.0,0.0,1
8936613,71493461920,602.0,572.0,357.0,0,0.839,0.0,0.0,1
8936614,71493469917,581.0,574.0,368.0,0,0.795,0.0,0.0,1
8936615,71493477920,571.0,573.0,374.0,0,0.746,0.0,0.0,1
8936616,71493485916,552.0,568.0,377.0,0,0.715,0.0,0.0,1
8936617,71493493920,527.0,558.0,376.0,1,0.693,0.0,0.0,1
8936618,71493501918,508.0,546.0,370.0,0,0.737,0.0,0.0,1
8936619,71493509920,474.0,529.0,361.0,0,0.761,0.0,0.0,1
8936620,71493517920,452.0,510.0,348.0,0,0.791,0.0,0.0,1
8936621,71493525917,420.0,488.0,332.0,0,0.806,0.0,0.0,1
8936622,71493533921,381.0,462.0,313.0,0,0.814,0.0,0.0,1
8936623,71493541916,356.0,436.0,292.0,0,0.809,0.0,0.0,1
8936624,71493549920,316.0,407.0,267.0,0,0.807,0.0,0.0,1
8936625,71493557916,288.0,378.0,242.0,0,0.779,0.0,0.0,1
8936626,71493565920,259.0,349.0,215.0,0,0.755,0.0,0.0,1
8936627,71493573917,223.0,319.0,186.0,0,0.726,0.0,0.0,1
8936628,71493581916,204.0,291.0,158.0,0,0.683,0.0,0.0,1
8936629,71493589917,173.0,262.0,130.0,0,0.644,0.0,0.0,1
8936630,71493597920,157.0,237.0,102.0,0,0.606,0.0,0.0,1
8936631,71493605918,139.0,213.0,75.0,0,0.565,0.0,0.0,1
8936632,71493613917,116.0,190.0,50.0,0,0.524,0.0,0.0,1
8936633,71493621920,112.0,171.0,26.0,0,0.528,0.0,0.0,1
8936634,71493629920,93.0,152.0,4.0,0,0.543,0.0,0.0,1
