seq,t_us,raw,avg,filtered,candidate,detector_score,expected_rr_ms,hr_bpm,flags
1983762,15870638043,639.0,537.0,313.0,0,0.834,848.0,0.0,1
1983763,15870646043,646.0,564.0,344.0,0,0.839,848.0,0.0,1
1983764,15870654043,655.0,586.0,372.0,0,0.838,848.0,0.0,1
1983765,15870662043,646.0,600.0,395.0,0,0.82,848.0,0.0,1
1983766,15870670043,639.0,610.0,413.0,0,0.795,848.0,0.0,1
1983767,15870678046,625.0,613.0,426.0,0,0.764,848.0,0.0,1
1983768,15870686043,603.0,611.0,434.0,0,0.729,848.0,0.0,1
1983769,15870694043,588.0,605.0,437.0,0,0.694,848.0,0.0,1
1983770,15870702043,559.0,594.0,436.0,1,0.679,848.0,0.0,1
1983771,15870710046,534.0,580.0,429.0,0,0.716,848.0,0.0,1
1983772,15870718043,501.0,561.0,419.0,0,0.732,848.0,0.0,1
1983773,15870726043,464.0,537.0,404.0,0,0.76,848.0,0.0,1
1983774,15870734043,432.0,512.0,385.0,0,0.776,848.0,0.0,1
1983775,15870742047,383.0,480.0,362.0,0,0.787,848.0,0.0,1
1983776,15870750043,346.0,448.0,336.0,0,0.786,848.0,0.0,1
1983777,15870758043,313.0,415.0,308.0,0,0.776,848.0,0.0,1
1983778,15870766043,273.0,381.0,277.0,0,0.766,848.0,0.0,1
1983779,15870774043,237.0,346.0,245.0,0,0.743,848.0,0.0,1
1983780,15870782043,203.0,311.0,212.0,0,0.717,848.0,0.0,1
1983781,15870790043,168.0,277.0,179.0,0,0.684,848.0,0.0,1
1983782,15870798043,134.0,242.0,144.0,0,0.656,848.0,0.0,1
1983783,15870806043,104.0,209.0,111.0,0,0.614,848.0,0.0,1
1983784,15870814043,86.0,179.0,78.0,0,0.58,848.0,0.0,1
1983785,15870822047,64.0,151.0,47.0,0,0.541,848.0,0.0,1
1983786,15870830043,48.0,126.0,17.0,0,0.509,848.0,0.0,1
1983787,15870838043,37.0,104.0,-10.0,0,0.5,848.0,0.0,1
1983788,15870846043,21.0,84.0,-35.0,0,0.513,848.0,0.0,1
1983789,15870854047,14.0,67.0,-57.0,0,0.518,848.0,0.0,1
1983790,15870862043,4.0,52.0,-77.0,0,0.526,856.0,0.0,1
1983791,15870870043,1.0,40.0,-95.0,0,0.532,856.0,0.0,1
1983792,15870878043,0.0,30.0,-110.0,0,0.528,856.0,0.0,3
1983793,15870886047,0.0,23.0,-122.0,0,0.52,856.0,0.0,3
1983794,15870894045,0.0,17.0,-133.0,0,0.525,856.0,0.0,3
1983795,15870902043,0.0,13.0,-141.0,0,0.511,856.0,0.0,3
1983796,15870910043,0.0,10.0,-147.0,0,0.503,856.0,0.0,3
1983797,15870918043,0.0,7.0,-152.0,0,0.501,856.0,0.0,3
1983798,15870926043,0.0,6.0,-156.0,0,0.498,856.0,0.0,3
1983799,15870934043,0.0,4.0,-159.0,0,0.494,856.0,0.0,3
1983800,15870942043,0.0,3.0,-161.0,0,0.489,856.0,0.0,3
1983801,15870950043,0.0,2.0,-162.0,0,0.484,856.0,0.0,3
1983802,15870958043,0.0,2.0,-163.0,0,0.485,856.0,0.0,3
1983803,15870966043,0.0,1.0,-163.0,1,0.478,856.0,0.0,3
1983804,15870974043,0.0,1.0,-163.0,0,0.478,856.0,0.0,3
1983805,15870982043,0.0,1.0,-163.0,0,0.478,856.0,0.0,3
1983806,15870990043,0.0,1.0,-163.0,0,0.478,856.0,0.0,3
1983807,15870998043,0.0,0.0,-162.0,0,0.483,856.0,0.0,3
1983808,15871006043,0.0,0.0,-161.0,0,0.482,856.0,0.0,3
1983809,15871014043,0.0,0.0,-161.0,1,0.475,856.0,0.0,3
1983810,15871022043,0.0,0.0,-160.0,0,0.481,856.0,0.0,3
1983811,15871030043,0.0,0.0,-159.0,0,0.48,856.0,70.1,3
1983812,15871038043,0.0,0.0,-158.0,0,0.479,856.0,70.1,3
1983813,15871046046,0.0,0.0,-157.0,0,0.478,856.0,70.1,3
1983814,15871054044,0.0,0.0,-156.0,0,0.476,856.0,70.1,3
1983815,15871062043,0.0,0.0,-155.0,0,0.475,856.0,70.1,3
1983816,15871070043,0.0,0.0,-154.0,0,0.474,856.0,70.1,3
1983817,15871078045,0.0,0.0,-153.0,0,0.473,856.0,70.1,3
1983818,15871086043,0.0,0.0,-152.0,0,0.472,856.0,70.1,3
1983819,15871094044,0.0,0.0,-151.0,0,0.471,856.0,70.1,3
1983820,15871102043,0.0,0.0,-150.0,0,0.47,856.0,70.1,3
1983821,15871110043,0.0,0.0,-149.0,0,0.469,856.0,70.1,3
1983822,15871118043,0.0,0.0,-148.0,0,0.468,856.0,70.1,3
1983823,15871126046,0.0,0.0,-147.0,0,0.467,856.0,70.1,3
1983824,15871134043,0.0,0.0,-146.0,0,0.466,856.0,70.1,3
1983825,15871142044,0.0,0.0,-146.0,1,0.46,856.0,70.1,3
1983826,15871150043,0.0,0.0,-145.0,0,0.465,856.0,70.1,3
1983827,15871158043,0.0,0.0,-144.0,0,0.464,856.0,70.1,3
1983828,15871166046,0.0,0.0,-143.0,0,0.463,856.0,70.1,3
1983829,15871174043,0.0,0.0,-142.0,0,0.462,856.0,70.1,3
1983830,15871182043,0.0,0.0,-141.0,0,0.461,856.0,70.1,3
1983831,15871190043,3.0,1.0,-140.0,0,0.46,856.0,70.1,1
1983832,15871198043,11.0,3.0,-138.0,0,0.464,856.0,70.1,1
1983833,15871206047,13.0,6.0,-136.0,0,0.462,856.0,70.1,1
1983834,15871214043,21.0,9.0,-133.0,0,0.466,856.0,70.1,1
1983835,15871222043,24.0,13.0,-129.0,0,0.468,856.0,70.1,1
1983836,15871230043,34.0,18.0,-125.0,0,0.464,856.0,70.1,1
1983837,15871238047,48.0,25.0,-120.0,0,0.466,856.0,70.1,1
1983838,15871246043,42.0,29.0,-115.0,0,0.46,856.0,70.1,1
1983839,15871254046,49.0,34.0,-110.0,0,0.455,856.0,70.1,1
1983840,15871262043,52.0,38.0,-105.0,0,0.45,856.0,70.1,1
1983841,15871270046,52.0,42.0,-100.0,0,0.445,856.0,70.1,1
1983842,15871278043,57.0,45.0,-96.0,0,0.434,856.0,70.1,1
1983843,15871286047,60.0,49.0,-91.0,0,0.435,856.0,70.1,1
1983844,15871294043,62.0,52.0,-87.0,0,0.424,856.0,70.1,1
1983845,15871302043,60.0,54.0,-83.0,0,0.42,856.0,70.1,1
1983846,15871310043,67.0,57.0,-80.0,0,0.41,856.0,70.1,1
1983847,15871318043,71.0,61.0,-76.0,0,0.413,856.0,70.1,1
1983848,15871326043,70.0,63.0,-72.0,0,0.409,856.0,70.1,1
1983849,15871334047,73.0,65.0,-69.0,0,0.399,856.0,70.1,1
1983850,15871342043,82.0,69.0,-66.0,0,0.396,856.0,70.1,1
1983851,15871350043,90.0,74.0,-61.0,0,0.404,856.0,70.1,1
1983852,15871358043,109.0,83.0,-56.0,0,0.399,856.0,70.1,1
1983853,15871366046,131.0,94.0,-49.0,0,0.406,856.0,70.1,1
1983854,15871374043,161.0,111.0,-39.0,0,0.418,856.0,70.1,1
1983855,15871382043,196.0,131.0,-26.0,0,0.427,856.0,70.1,1
1983856,15871390044,229.0,155.0,-10.0,0,0.433,856.0,70.1,1
1983857,15871398045,280.0,185.0,10.0,0,0.458,856.0,70.1,1
1983858,15871406044,323.0,219.0,33.0,0,0.498,856.0,70.1,1
1983859,15871414046,375.0,257.0,61.0,0,0.552,856.0,70.1,1
1983860,15871422043,419.0,296.0,91.0,0,0.592,856.0,70.1,1
1983861,15871430044,459.0,335.0,124.0,0,0.639,856.0,70.1,1
1983862,15871438043,504.0,376.0,159.0,0,0.683,856.0,70.1,1
1983863,15871446044,537.0,415.0,194.0,0,0.719,856.0,70.1,1
1983864,15871454045,566.0,452.0,229.0,0,0.752,856.0,70.1,1
1983865,15871462043,583.0,484.0,262.0,0,0.773,856.0,70.1,1
1983866,15871470046,599.0,512.0,294.0,0,0.793,856.0,70.1,1
1983867,15871478044,608.0,535.0,322.0,0,0.795,856.0,70.1,1
1983868,15871486043,612.0,554.0,347.0,0,0.795,856.0,70.1,1
1983869,15871494043,609.0,567.0,367.0,0,0.777,856.0,70.1,1
1983870,15871502043,597.0,574.0,383.0,0,0.759,856.0,70.1,1
1983871,15871510044,587.0,577.0,395.0,0,0.737,856.0,70.1,1
1983872,15871518044,570.0,576.0,402.0,0,0.704,856.0,70.1,1
1983873,15871526043,546.0,568.0,404.0,0,0.67,856.0,70.1,1
1983874,15871534043,523.0,557.0,401.0,1,0.676,856.0,70.1,1
1983875,15871542043,491.0,541.0,394.0,0,0.701,856.0,70.1,1
1983876,15871550043,458.0,521.0,383.0,0,0.724,856.0,70.1,1
1983877,15871558044,427.0,498.0,368.0,0,0.745,856.0,70.1,1
1983878,15871566043,383.0,470.0,348.0,0,0.768,856.0,70.1,1
1983879,15871574044,352.0,442.0,326.0,0,0.767,856.0,70.1,1
1983880,15871582043,316.0,411.0,300.0,0,0.772,856.0,70.1,1
1983881,15871590043,276.0,378.0,272.0,0,0.761,856.0,70.1,1
1983882,15871598043,240.0,345.0,243.0,0,0.741,856.0,70.1,1
1983883,15871606043,204.0,311.0,211.0,0,0.725,856.0,70.1,1
1983884,15871614043,170.0,277.0,179.0,0,0.694,856.0,70.1,1
1983885,15871622043,143.0,244.0,147.0,0,0.661,856.0,70.1,1
1983886,15871630043,115.0,213.0,114.0,0,0.63,856.0,70.1,1
1983887,15871638044,91.0,183.0,83.0,0,0.589,856.0,70.1,1
1983888,15871646043,69.0,156.0,53.0,0,0.554,856.0,70.1,1
1983889,15871654043,54.0,131.0,24.0,0,0.521,856.0,70.1,1
1983890,15871662043,36.0,108.0,-3.0,0,0.492,856.0,70.1,1
1983891,15871670043,25.0,88.0,-28.0,0,0.505,856.0,70.1,1
1983892,15871678043,16.0,70.0,-50.0,0,0.51,856.0,70.1,1
1983893,15871686047,8.0,55.0,-70.0,0,0.518,856.0,70.1,1
1983894,15871694045,4.0,43.0,-88.0,0,0.524,856.0,70.1,1
1983895,15871702043,1.0,33.0,-103.0,0,0.52,856.0,70.1,1
1983896,15871710043,0.0,25.0,-116.0,0,0.52,856.0,70.1,3
1983897,15871718044,4.0,20.0,-127.0,0,0.517,856.0,70.1,1
1983898,15871726043,0.0,15.0,-135.0,0,0.504,856.0,70.1,3
1983899,15871734043,0.0,11.0,-142.0,0,0.504,856.0,70.1,3
1983900,15871742045,0.0,9.0,-147.0,0,0.495,856.0,70.1,3
1983901,15871750045,0.0,7.0,-151.0,0,0.492,856.0,70.1,3
1983902,15871758043,0.0,5.0,-154.0,0,0.489,856.0,70.1,3
1983903,15871766045,0.0,4.0,-156.0,0,0.484,856.0,70.1,3
1983904,15871774043,0.0,3.0,-158.0,0,0.486,856.0,70.1,3
1983905,15871782046,0.0,2.0,-159.0,0,0.48,856.0,70.1,3
1983906,15871790046,0.0,2.0,-160.0,0,0.481,856.0,70.1,3
1983907,15871798047,0.0,1.0,-160.0,1,0.475,832.0,70.1,3
1983908,15871806047,0.0,1.0,-160.0,0,0.475,832.0,70.1,3
1983909,15871814047,0.0,1.0,-159.0,0,0.48,832.0,70.1,3
1983910,15871822045,0.0,1.0,-159.0,1,0.474,832.0,70.1,3
1983911,15871830043,0.0,0.0,-158.0,0,0.479,832.0,70.1,3
1983912,15871838047,0.0,0.0,-158.0,1,0.473,832.0,70.1,3
1983913,15871846045,0.0,0.0,-157.0,0,0.478,832.0,70.1,3
1983914,15871854046,0.0,0.0,-156.0,0,0.477,832.0,70.1,3
1983915,15871862043,0.0,0.0,-155.0,0,0.476,832.0,70.1,3
1983916,15871870043,0.0,0.0,-154.0,0,0.475,832.0,70.1,3
1983917,15871878045,0.0,0.0,-153.0,0,0.474,841.6,71.1,3
1983918,15871886045,0.0,0.0,-152.0,0,0.473,841.6,71.1,3
1983919,15871894046,0.0,0.0,-151.0,0,0.472,841.6,71.1,3
1983920,15871902046,0.0,0.0,-150.0,0,0.471,841.6,71.1,3
1983921,15871910043,0.0,0.0,-150.0,1,0.464,841.6,71.1,3
1983922,15871918043,0.0,0.0,-149.0,0,0.47,841.6,71.1,3
1983923,15871926045,0.0,0.0,-148.0,0,0.469,841.6,71.1,3
1983924,15871934043,0.0,0.0,-147.0,0,0.468,841.6,71.1,3
1983925,15871942044,0.0,0.0,-146.0,0,0.467,841.6,71.1,3
1983926,15871950043,0.0,0.0,-145.0,0,0.466,841.6,71.1,3
1983927,15871958043,0.0,0.0,-144.0,0,0.465,841.6,71.1,3
1983928,15871966043,0.0,0.0,-143.0,0,0.464,841.6,71.1,3
1983929,15871974043,0.0,0.0,-142.0,0,0.463,841.6,71.1,3
1983930,15871982047,0.0,0.0,-141.0,0,0.461,841.6,71.1,3
1983931,15871990043,3.0,1.0,-140.0,0,0.46,841.6,71.1,1
1983932,15871998046,12.0,3.0,-138.0,0,0.465,841.6,71.1,1
1983933,15872006043,12.0,6.0,-136.0,0,0.463,841.6,71.1,1
1983934,15872014044,19.0,9.0,-133.0,0,0.466,841.6,71.1,1
1983935,15872022047,20.0,12.0,-130.0,0,0.463,841.6,71.1,1
1983936,15872030043,27.0,15.0,-127.0,0,0.46,841.6,71.1,1
1983937,15872038046,32.0,19.0,-123.0,0,0.463,841.6,71.1,1
1983938,15872046043,34.0,23.0,-119.0,0,0.458,841.6,71.1,1
1983939,15872054044,37.0,26.0,-115.0,0,0.454,841.6,71.1,1
1983940,15872062043,42.0,30.0,-111.0,0,0.45,841.6,71.1,1
1983941,15872070046,46.0,34.0,-107.0,0,0.446,841.6,71.1,1
1983942,15872078043,52.0,38.0,-102.0,0,0.447,841.6,71.1,1
1983943,15872086046,52.0,42.0,-98.0,0,0.436,841.6,71.1,1
1983944,15872094043,62.0,47.0,-93.0,0,0.438,841.6,71.1,1
1983945,15872102045,61.0,50.0,-89.0,0,0.427,841.6,71.1,1
1983946,15872110043,71.0,55.0,-84.0,0,0.429,841.6,71.1,1
1983947,15872118043,72.0,59.0,-79.0,0,0.423,841.6,71.1,1
1983948,15872126043,72.0,62.0,-75.0,0,0.412,841.6,71.1,1
1983949,15872134047,79.0,66.0,-71.0,0,0.408,841.6,71.1,1
1983950,15872142043,76.0,69.0,-67.0,0,0.404,841.6,71.1,1
1983951,15872150047,80.0,71.0,-63.0,0,0.4,841.6,71.1,1
1983952,15872158043,82.0,74.0,-60.0,0,0.39,841.6,71.1,1
1983953,15872166045,80.0,75.0,-57.0,0,0.387,841.6,71.1,1
1983954,15872174043,96.0,80.0,-53.0,0,0.39,841.6,71.1,1
1983955,15872182043,103.0,86.0,-49.0,0,0.386,841.6,71.1,1
1983956,15872190043,132.0,97.0,-42.0,0,0.4,841.6,71.1,1
1983957,15872198046,147.0,109.0,-34.0,0,0.4,841.6,71.1,1
1983958,15872206047,174.0,125.0,-24.0,0,0.404,841.6,71.1,1
1983959,15872214044,212.0,146.0,-11.0,0,0.414,841.6,71.1,1
1983960,15872222043,255.0,172.0,6.0,0,0.437,841.6,71.1,1
1983961,15872230047,305.0,205.0,27.0,0,0.483,841.6,71.1,1
1983962,15872238043,356.0,241.0,52.0,0,0.53,841.6,71.1,1
1983963,15872246045,404.0,281.0,81.0,0,0.58,841.6,71.1,1
1983964,15872254044,456.0,323.0,114.0,0,0.632,841.6,71.1,1
1983965,15872262045,500.0,366.0,149.0,0,0.676,841.6,71.1,1
1983966,15872270046,542.0,409.0,186.0,0,0.721,841.6,71.1,1
1983967,15872278043,576.0,449.0,223.0,0,0.756,841.6,71.1,1
1983968,15872286043,600.0,486.0,259.0,0,0.783,841.6,71.1,1
1983969,15872294044,624.0,519.0,294.0,0,0.806,841.6,71.1,1
1983970,15872302045,636.0,548.0,326.0,0,0.816,841.6,71.1,1
1983971,15872310043,648.0,572.0,355.0,0,0.82,841.6,71.1,1
1983972,15872318043,653.0,592.0,381.0,0,0.818,841.6,71.1,1
1983973,15872326043,639.0,603.0,402.0,0,0.799,841.6,71.1,1
1983974,15872334043,639.0,612.0,418.0,0,0.774,841.6,71.1,1
1983975,15872342043,615.0,613.0,429.0,0,0.743,841.6,71.1,1
1983976,15872350043,600.0,610.0,435.0,0,0.709,841.6,71.1,1
1983977,15872358044,578.0,602.0,437.0,0,0.682,841.6,71.1,1
1983978,15872366044,548.0,589.0,433.0,1,0.694,841.6,71.1,1
1983979,15872374045,517.0,571.0,425.0,0,0.719,841.6,71.1,1
1983980,15872382046,480.0,549.0,412.0,0,0.75,841.6,71.1,1
1983981,15872390044,449.0,525.0,395.0,0,0.77,841.6,71.1,1
1983982,15872398043,414.0,498.0,375.0,0,0.78,841.6,71.1,1
1983983,15872406043,369.0,467.0,350.0,0,0.796,841.6,71.1,1
1983984,15872414047,332.0,434.0,323.0,0,0.789,841.6,71.1,1
1983985,15872422046,288.0,399.0,294.0,0,0.779,840.0,71.1,1
1983986,15872430047,253.0,363.0,262.0,0,0.767,840.0,71.1,1
1983987,15872438043,215.0,327.0,229.0,0,0.742,840.0,71.1,1
1983988,15872446043,179.0,291.0,195.0,0,0.714,840.0,71.1,1
1983989,15872454043,150.0,257.0,160.0,0,0.682,840.0,71.1,1
1983990,15872462047,116.0,223.0,126.0,0,0.643,840.0,71.1,1
1983991,15872470045,90.0,191.0,92.0,0,0.607,840.0,71.1,1
1983992,15872478043,72.0,162.0,60.0,0,0.566,840.0,71.1,1
1983993,15872486046,52.0,135.0,29.0,0,0.532,840.0,71.1,1
1983994,15872494045,33.0,110.0,0.0,0,0.499,840.0,71.1,1
1983995,15872502047,10.0,86.0,-27.0,0,0.515,840.0,71.1,1
1983996,15872510043,9.0,67.0,-52.0,0,0.529,840.0,71.1,1
1983997,15872518043,2.0,52.0,-74.0,0,0.535,840.0,71.1,1
1983998,15872526043,0.0,39.0,-93.0,0,0.537,840.0,71.1,3
1983999,15872534043,0.0,30.0,-109.0,0,0.534,840.0,71.1,3
1984000,15872542043,0.0,22.0,-122.0,0,0.527,840.0,71.1,3
1984001,15872550046,0.0,17.0,-132.0,0,0.517,840.0,71.1,3
1984002,15872558043,0.0,13.0,-141.0,0,0.519,840.0,71.1,3
1984003,15872566043,0.0,10.0,-148.0,0,0.512,840.0,71.1,3
1984004,15872574044,0.0,7.0,-153.0,0,0.503,840.0,71.1,3
1984005,15872582044,0.0,6.0,-156.0,0,0.492,840.0,71.1,3
1984006,15872590043,0.0,4.0,-159.0,0,0.495,840.0,71.1,3
1984007,15872598045,0.0,3.0,-161.0,0,0.49,840.0,71.1,3
1984008,15872606046,0.0,2.0,-163.0,0,0.492,840.0,71.1,3
1984009,15872614046,0.0,2.0,-163.0,1,0.479,840.0,71.1,3
1984010,15872622043,0.0,1.0,-164.0,0,0.486,840.0,71.1,3
1984011,15872630045,0.0,1.0,-164.0,1,0.479,840.0,71.1,3
1984012,15872638045,0.0,1.0,-164.0,0,0.479,840.0,71.1,3
1984013,15872646046,0.0,1.0,-163.0,0,0.485,840.0,71.1,3
1984014,15872654043,0.0,0.0,-163.0,1,0.478,840.0,71.1,3
1984015,15872662043,0.0,0.0,-162.0,0,0.484,840.0,71.1,3
1984016,15872670047,0.0,0.0,-161.0,0,0.483,840.0,71.1,3
1984017,15872678043,0.0,0.0,-160.0,0,0.482,840.0,71.1,3
1984018,15872686046,0.0,0.0,-160.0,1,0.475,840.0,71.1,3
1984019,15872694047,0.0,0.0,-159.0,0,0.481,840.0,71.1,3
1984020,15872702043,0.0,0.0,-158.0,0,0.48,840.0,71.1,3
1984021,15872710045,0.0,0.0,-157.0,0,0.479,840.0,71.1,3
1984022,15872718043,0.0,0.0,-156.0,0,0.478,830.4,72.1,3
1984023,15872726043,0.0,0.0,-155.0,0,0.477,830.4,72.1,3
1984024,15872734045,0.0,0.0,-154.0,0,0.476,832.0,72.1,3
1984025,15872742047,0.0,0.0,-153.0,0,0.474,832.0,72.1,3
1984026,15872750044,0.0,0.0,-152.0,0,0.473,832.0,72.1,3
1984027,15872758043,0.0,0.0,-151.0,0,0.472,832.0,72.1,3
1984028,15872766043,0.0,0.0,-150.0,0,0.471,832.0,72.1,3
1984029,15872774043,0.0,0.0,-149.0,0,0.47,832.0,72.1,3
1984030,15872782043,0.0,0.0,-148.0,0,0.469,832.0,72.1,3
1984031,15872790043,0.0,0.0,-147.0,0,0.468,832.0,72.1,3
1984032,15872798045,0.0,0.0,-146.0,0,0.467,832.0,72.1,3
1984033,15872806043,0.0,0.0,-145.0,0,0.466,832.0,72.1,3
1984034,15872814043,0.0,0.0,-144.0,0,0.465,832.0,72.1,3
1984035,15872822043,0.0,0.0,-143.0,0,0.464,832.0,72.1,3
1984036,15872830045,0.0,0.0,-142.0,0,0.463,832.0,72.1,3
1984037,15872838043,0.0,0.0,-141.0,0,0.462,832.0,72.1,3
1984038,15872846045,0.0,0.0,-140.0,0,0.461,832.0,72.1,3
1984039,15872854046,8.0,2.0,-139.0,0,0.46,832.0,72.1,1
1984040,15872862043,8.0,3.0,-137.0,0,0.464,832.0,72.1,1
1984041,15872870043,19.0,7.0,-135.0,0,0.462,832.0,72.1,1
1984042,15872878043,20.0,10.0,-132.0,0,0.466,832.0,72.1,1
1984043,15872886043,25.0,14.0,-128.0,0,0.468,832.0,72.1,1
1984044,15872894043,32.0,18.0,-124.0,0,0.464,832.0,72.1,1
1984045,15872902043,42.0,24.0,-120.0,0,0.46,832.0,72.1,1
1984046,15872910043,41.0,28.0,-115.0,0,0.462,832.0,72.1,1
1984047,15872918043,47.0,33.0,-110.0,0,0.456,832.0,72.1,1
1984048,15872926043,52.0,37.0,-105.0,0,0.451,832.0,72.1,1
1984049,15872934043,59.0,43.0,-100.0,0,0.446,832.0,72.1,1
1984050,15872942044,57.0,46.0,-95.0,0,0.44,832.0,72.1,1
1984051,15872950043,64.0,50.0,-90.0,0,0.435,832.0,72.1,1
1984052,15872958043,64.0,54.0,-86.0,0,0.424,832.0,72.1,1
1984053,15872966043,65.0,56.0,-82.0,0,0.42,832.0,72.1,1
1984054,15872974043,68.0,59.0,-78.0,0,0.416,832.0,72.1,1
1984055,15872982043,68.0,61.0,-74.0,0,0.411,832.0,72.1,1
1984056,15872990044,73.0,64.0,-71.0,0,0.401,832.0,72.1,1
1984057,15872998043,73.0,66.0,-68.0,0,0.398,832.0,72.1,1
1984058,15873006050,84.0,71.0,-64.0,0,0.401,832.0,72.1,1
1984059,15873014043,91.0,76.0,-60.0,0,0.397,832.0,72.1,1
1984060,15873022047,103.0,82.0,-55.0,0,0.399,832.0,72.1,1
1984061,15873030043,131.0,94.0,-48.0,0,0.406,832.0,72.1,1
1984062,15873038043,160.0,110.0,-38.0,0,0.418,832.0,72.1,1
1984063,15873046043,192.0,130.0,-26.0,0,0.421,832.0,72.1,1
1984064,15873054043,236.0,156.0,-10.0,0,0.434,832.0,72.1,1
1984065,15873062044,284.0,187.0,11.0,0,0.469,832.0,72.1,1
1984066,15873070047,334.0,222.0,35.0,0,0.51,832.0,72.1,1
1984067,15873078043,383.0,261.0,64.0,0,0.565,832.0,72.1,1
1984068,15873086043,430.0,302.0,95.0,0,0.606,832.0,72.1,1
1984069,15873094043,480.0,345.0,130.0,0,0.659,832.0,72.1,1
1984070,15873102043,522.0,388.0,166.0,0,0.699,832.0,72.1,1
1984071,15873110044,556.0,429.0,203.0,0,0.739,832.0,72.1,1
1984072,15873118044,590.0,468.0,240.0,0,0.773,832.0,72.1,1
1984073,15873126046,612.0,503.0,276.0,0,0.798,832.0,72.1,1
1984074,15873134043,636.0,535.0,310.0,0,0.815,832.0,72.1,1
1984075,15873142044,639.0,560.0,340.0,0,0.816,832.0,72.1,1
1984076,15873150043,655.0,583.0,368.0,0,0.821,832.0,72.1,1
1984077,15873158043,652.0,600.0,392.0,0,0.811,832.0,72.1,1
1984078,15873166046,639.0,609.0,410.0,0,0.782,832.0,72.1,1
1984079,15873174044,628.0,614.0,424.0,0,0.761,832.0,72.1,1
1984080,15873182045,604.0,612.0,433.0,0,0.729,832.0,72.1,1
1984081,15873190043,583.0,605.0,436.0,0,0.687,832.0,72.1,1
1984082,15873198047,562.0,594.0,434.0,1,0.679,832.0,72.1,1
1984083,15873206043,525.0,577.0,427.0,0,0.71,832.0,72.1,1
1984084,15873214043,498.0,558.0,416.0,0,0.734,832.0,72.1,1
1984085,15873222047,459.0,534.0,401.0,0,0.756,832.0,72.1,1
1984086,15873230043,427.0,508.0,382.0,0,0.774,832.0,72.1,1
1984087,15873238046,383.0,478.0,359.0,0,0.786,832.0,72.1,1
1984088,15873246047,344.0,445.0,333.0,0,0.786,832.0,72.1,1
1984089,15873254044,308.0,412.0,304.0,0,0.781,832.0,72.1,1
1984090,15873262046,265.0,376.0,273.0,0,0.766,832.0,72.1,1
1984091,15873270044,228.0,340.0,241.0,0,0.743,832.0,72.1,1
1984092,15873278043,196.0,305.0,207.0,0,0.72,832.0,72.1,1
1984093,15873286043,159.0,270.0,173.0,0,0.687,832.0,72.1,1
1984094,15873294046,130.0,236.0,138.0,0,0.654,832.0,72.1,1
1984095,15873302043,97.0,202.0,104.0,0,0.615,832.0,72.1,1
1984096,15873310046,76.0,172.0,71.0,0,0.577,832.0,72.1,1
1984097,15873318044,58.0,144.0,40.0,0,0.538,832.0,72.1,1
1984098,15873326046,43.0,120.0,10.0,0,0.506,832.0,72.1,1
1984099,15873334046,30.0,98.0,-17.0,0,0.506,832.0,72.1,1
1984100,15873342047,14.0,78.0,-42.0,0,0.519,832.0,72.1,1
1984101,15873350046,9.0,61.0,-64.0,0,0.525,832.0,72.1,1
1984102,15873358047,1.0,46.0,-84.0,0,0.534,832.0,72.1,1
1984103,15873366043,0.0,35.0,-101.0,0,0.533,832.0,72.1,3
1984104,15873374043,0.0,27.0,-115.0,0,0.527,832.0,72.1,3
1984105,15873382043,0.0,20.0,-127.0,0,0.526,832.0,72.1,3
1984106,15873390044,0.0,15.0,-137.0,0,0.523,832.0,72.1,3
1984107,15873398045,0.0,12.0,-144.0,0,0.508,832.0,72.1,3
1984108,15873406043,0.0,9.0,-150.0,0,0.507,832.0,72.1,3
1984109,15873414043,0.0,7.0,-155.0,0,0.505,832.0,72.1,3
1984110,15873422045,0.0,5.0,-158.0,0,0.494,832.0,72.1,3
1984111,15873430043,0.0,4.0,-160.0,0,0.489,832.0,72.1,3
1984112,15873438047,0.0,3.0,-162.0,0,0.491,832.0,72.1,3
1984113,15873446043,0.0,2.0,-163.0,0,0.485,832.0,72.1,3
1984114,15873454044,0.0,2.0,-164.0,0,0.486,832.0,72.1,3
1984115,15873462043,0.0,1.0,-164.0,1,0.479,832.0,72.1,3
1984116,15873470043,0.0,1.0,-164.0,0,0.479,832.0,72.1,3
1984117,15873478047,0.0,1.0,-164.0,0,0.479,832.0,72.1,3
1984118,15873486043,0.0,1.0,-163.0,0,0.485,832.0,72.1,3
1984119,15873494043,0.0,0.0,-163.0,1,0.478,832.0,72.1,3
1984120,15873502043,0.0,0.0,-162.0,0,0.483,832.0,72.1,3
1984121,15873510047,0.0,0.0,-161.0,0,0.482,832.0,72.1,3
1984122,15873518045,0.0,0.0,-160.0,0,0.481,832.0,72.1,3
1984123,15873526047,0.0,0.0,-159.0,0,0.48,832.0,72.1,3
1984124,15873534044,0.0,0.0,-158.0,0,0.479,832.0,72.1,3
1984125,15873542047,0.0,0.0,-158.0,1,0.473,832.0,72.1,3
1984126,15873550045,0.0,0.0,-157.0,0,0.478,832.0,72.1,3
1984127,15873558043,0.0,0.0,-156.0,0,0.477,832.0,72.1,3
1984128,15873566043,0.0,0.0,-155.0,0,0.476,832.0,72.1,3
1984129,15873574045,0.0,0.0,-154.0,0,0.475,832.0,72.1,3
1984130,15873582043,0.0,0.0,-153.0,0,0.474,832.0,72.1,3
1984131,15873590046,0.0,0.0,-152.0,0,0.473,832.0,72.1,3
1984132,15873598046,0.0,0.0,-151.0,0,0.472,832.0,72.1,3
1984133,15873606043,0.0,0.0,-150.0,0,0.471,832.0,72.1,3
1984134,15873614043,0.0,0.0,-149.0,0,0.47,832.0,72.1,3
1984135,15873622046,0.0,0.0,-148.0,0,0.469,832.0,72.1,3
1984136,15873630045,0.0,0.0,-147.0,0,0.468,832.0,72.1,3
1984137,15873638043,0.0,0.0,-146.0,0,0.467,832.0,72.1,3
1984138,15873646043,0.0,0.0,-145.0,0,0.466,832.0,72.1,3
1984139,15873654046,0.0,0.0,-144.0,0,0.465,832.0,72.1,3
1984140,15873662046,0.0,0.0,-143.0,0,0.464,832.0,72.1,3
1984141,15873670043,0.0,0.0,-142.0,0,0.463,832.0,72.1,3
1984142,15873678045,0.0,0.0,-141.0,0,0.461,832.0,72.1,3
1984143,15873686043,0.0,0.0,-140.0,0,0.46,832.0,72.1,3
1984144,15873694043,11.0,3.0,-138.0,0,0.465,832.0,72.1,1
1984145,15873702044,11.0,5.0,-136.0,0,0.463,832.0,72.1,1
1984146,15873710043,17.0,8.0,-134.0,0,0.461,832.0,72.1,1
1984147,15873718045,25.0,12.0,-131.0,0,0.464,832.0,72.1,1
1984148,15873726046,26.0,15.0,-127.0,0,0.467,832.0,72.1,1
1984149,15873734043,32.0,19.0,-123.0,0,0.463,832.0,72.1,1
1984150,15873742043,35.0,23.0,-119.0,0,0.458,832.0,72.1,1
1984151,15873750043,38.0,27.0,-115.0,0,0.454,832.0,72.1,1
1984152,15873758045,44.0,31.0,-111.0,0,0.45,832.0,72.1,1
1984153,15873766043,44.0,34.0,-106.0,0,0.452,832.0,72.1,1
1984154,15873774047,52.0,38.0,-102.0,0,0.44,832.0,72.1,1
1984155,15873782043,45.0,40.0,-98.0,0,0.436,832.0,72.1,1
1984156,15873790043,52.0,43.0,-95.0,0,0.426,832.0,72.1,1
1984157,15873798043,55.0,46.0,-91.0,0,0.429,832.0,72.1,1
1984158,15873806043,58.0,49.0,-87.0,0,0.425,832.0,72.1,1
1984159,15873814043,68.0,53.0,-83.0,0,0.42,832.0,72.1,1
1984160,15873822043,71.0,58.0,-79.0,0,0.416,832.0,72.1,1
1984161,15873830043,92.0,66.0,-74.0,0,0.418,832.0,72.1,1
1984162,15873838043,116.0,78.0,-66.0,0,0.431,832.0,72.1,1
1984163,15873846043,140.0,93.0,-56.0,0,0.435,832.0,72.1,1
1984164,15873854046,178.0,114.0,-44.0,0,0.438,832.0,72.1,1
1984165,15873862043,216.0,139.0,-27.0,0,0.456,832.0,72.1,1
1984166,15873870045,264.0,169.0,-7.0,0,0.457,832.0,72.1,1
1984167,15873878043,311.0,203.0,17.0,0,0.493,832.0,72.1,1
1984168,15873886045,357.0,241.0,45.0,0,0.541,832.0,72.1,1
1984169,15873894043,409.0,281.0,76.0,0,0.587,832.0,72.1,1
1984170,15873902043,449.0,322.0,109.0,0,0.63,832.0,72.1,1
1984171,15873910044,488.0,362.0,144.0,0,0.674,832.0,72.1,1
1984172,15873918046,524.0,401.0,180.0,0,0.714,832.0,72.1,1
1984173,15873926044,554.0,438.0,215.0,0,0.744,832.0,72.1,1
1984174,15873934046,579.0,473.0,250.0,0,0.774,832.0,72.1,1
1984175,15873942043,593.0,502.0,282.0,0,0.787,832.0,72.1,1
1984176,15873950043,606.0,527.0,311.0,0,0.794,832.0,72.1,1
1984177,15873958046,608.0,547.0,337.0,0,0.794,832.0,72.1,1
1984178,15873966047,604.0,561.0,359.0,0,0.783,832.0,72.1,1
1984179,15873974043,603.0,571.0,377.0,0,0.766,832.0,72.1,1
1984180,15873982044,583.0,574.0,389.0,0,0.731,832.0,72.1,1
1984181,15873990043,567.0,572.0,397.0,0,0.706,832.0,72.1,1
1984182,15873998043,545.0,566.0,400.0,0,0.672,832.0,72.1,1
1984183,15874006046,521.0,555.0,398.0,1,0.663,832.0,72.1,1
1984184,15874014047,491.0,539.0,392.0,0,0.686,832.0,72.1,1
1984185,15874022047,453.0,518.0,381.0,0,0.715,832.0,72.1,1
1984186,15874030043,428.0,496.0,366.0,0,0.735,832.0,72.1,1
1984187,15874038043,389.0,470.0,347.0,0,0.75,832.0,72.1,1
1984188,15874046046,350.0,441.0,325.0,0,0.755,832.0,72.1,1
1984189,15874054043,317.0,411.0,300.0,0,0.754,832.0,72.1,1
1984190,15874062043,270.0,377.0,272.0,0,0.748,832.0,72.1,1
1984191,15874070043,230.0,341.0,242.0,0,0.731,832.0,72.1,1
1984192,15874078043,196.0,306.0,210.0,0,0.71,832.0,72.1,1
1984193,15874086045,160.0,271.0,176.0,0,0.685,832.0,72.1,1
1984194,15874094043,136.0,238.0,143.0,0,0.648,832.0,72.1,1
1984195,15874102047,106.0,206.0,110.0,0,0.614,832.0,72.1,1
1984196,15874110043,84.0,176.0,78.0,0,0.577,832.0,72.1,1
1984197,15874118043,63.0,149.0,48.0,0,0.538,832.0,72.1,1
1984198,15874126043,41.0,123.0,19.0,0,0.506,832.0,72.1,1
1984199,15874134043,31.0,101.0,-9.0,0,0.503,832.0,72.1,1
1984200,15874142044,15.0,80.0,-34.0,0,0.511,832.0,72.1,1
1984201,15874150044,15.0,64.0,-56.0,0,0.516,832.0,72.1,1
1984202,15874158046,6.0,50.0,-76.0,0,0.524,832.0,72.1,1
1984203,15874166044,4.0,39.0,-92.0,0,0.515,832.0,72.1,1
1984204,15874174046,1.0,30.0,-107.0,0,0.524,832.0,72.1,1
1984205,15874182043,0.0,22.0,-119.0,0,0.516,832.0,72.1,3
1984206,15874190043,0.0,17.0,-129.0,0,0.513,832.0,72.1,3
1984207,15874198045,0.0,13.0,-137.0,0,0.507,832.0,72.1,3
1984208,15874206043,0.0,10.0,-143.0,0,0.499,832.0,72.1,3
1984209,15874214045,0.0,7.0,-148.0,0,0.497,832.0,72.1,3
1984210,15874222043,0.0,6.0,-152.0,0,0.494,832.0,72.1,3
1984211,15874230043,0.0,4.0,-154.0,0,0.482,832.0,72.1,3
1984212,15874238043,0.0,3.0,-156.0,0,0.483,832.0,72.1,3
1984213,15874246043,0.0,2.0,-158.0,0,0.485,832.0,72.1,3
1984214,15874254046,0.0,2.0,-158.0,1,0.472,832.0,72.1,3
1984215,15874262046,0.0,1.0,-159.0,0,0.479,832.0,72.1,3
1984216,15874270047,0.0,1.0,-159.0,1,0.472,832.0,72.1,3
1984217,15874278045,0.0,1.0,-159.0,0,0.472,832.0,72.1,3
1984218,15874286047,0.0,1.0,-158.0,0,0.477,832.0,72.1,3
1984219,15874294045,0.0,0.0,-158.0,1,0.471,827.2,72.1,3
1984220,15874302047,0.0,0.0,-157.0,0,0.476,827.2,72.1,3
1984221,15874310043,0.0,0.0,-156.0,0,0.475,827.2,72.1,3
1984222,15874318045,0.0,0.0,-156.0,1,0.468,827.2,72.1,3
1984223,15874326043,0.0,0.0,-155.0,0,0.474,827.2,72.1,3
1984224,15874334044,0.0,0.0,-154.0,0,0.473,827.2,72.1,3
1984225,15874342043,0.0,0.0,-153.0,0,0.472,827.2,72.1,3
1984226,15874350047,0.0,0.0,-152.0,0,0.47,827.2,72.1,3
1984227,15874358043,0.0,0.0,-151.0,0,0.469,827.2,72.1,3
1984228,15874366044,0.0,0.0,-150.0,0,0.468,827.2,72.1,3
1984229,15874374043,0.0,0.0,-149.0,0,0.467,827.2,72.1,3
1984230,15874382043,0.0,0.0,-148.0,0,0.466,827.2,72.1,3
1984231,15874390043,0.0,0.0,-147.0,0,0.465,827.2,72.1,3
1984232,15874398043,0.0,0.0,-146.0,0,0.464,827.2,72.1,3
1984233,15874406043,0.0,0.0,-145.0,0,0.463,827.2,72.1,3
1984234,15874414043,0.0,0.0,-144.0,0,0.462,827.2,72.1,3
1984235,15874422043,0.0,0.0,-143.0,0,0.461,827.2,72.1,3
1984236,15874430043,0.0,0.0,-143.0,1,0.455,827.2,72.1,3
1984237,15874438047,0.0,0.0,-142.0,0,0.46,827.2,72.1,3
1984238,15874446046,0.0,0.0,-141.0,0,0.459,827.2,72.1,3
1984239,15874454043,1.0,0.0,-140.0,0,0.458,827.2,72.1,1
1984240,15874462046,8.0,2.0,-138.0,0,0.463,827.2,72.1,1
1984241,15874470043,17.0,6.0,-136.0,0,0.461,827.2,72.1,1
1984242,15874478044,16.0,8.0,-133.0,0,0.464,827.2,72.1,1
1984243,15874486043,20.0,11.0,-130.0,0,0.461,827.2,72.1,1
1984244,15874494043,31.0,16.0,-127.0,0,0.458,827.2,72.1,1
1984245,15874502043,32.0,20.0,-123.0,0,0.46,827.2,72.1,1
1984246,15874510047,42.0,25.0,-118.0,0,0.462,827.2,72.1,1
1984247,15874518043,44.0,30.0,-113.0,0,0.457,827.2,72.1,1
1984248,15874526043,47.0,34.0,-108.0,0,0.451,827.2,72.1,1
1984249,15874534044,56.0,39.0,-103.0,0,0.446,827.2,72.1,1
1984250,15874542047,53.0,43.0,-99.0,0,0.435,827.2,72.1,1
1984251,15874550047,64.0,48.0,-94.0,0,0.437,827.2,72.1,1
1984252,15874558044,66.0,52.0,-89.0,0,0.431,827.2,72.1,1
1984253,15874566043,62.0,55.0,-84.0,0,0.426,827.2,72.1,1
1984254,15874574043,68.0,58.0,-80.0,0,0.415,827.2,72.1,1
1984255,15874582046,68.0,60.0,-76.0,0,0.411,827.2,72.1,1
1984256,15874590043,70.0,63.0,-73.0,0,0.401,827.2,72.1,1
1984257,15874598045,72.0,65.0,-69.0,0,0.404,827.2,72.1,1
1984258,15874606047,81.0,69.0,-66.0,0,0.394,827.2,72.1,1
1984259,15874614043,96.0,75.0,-61.0,0,0.403,827.2,72.1,1
1984260,15874622044,112.0,84.0,-55.0,0,0.404,827.2,72.1,1
1984261,15874630043,139.0,98.0,-47.0,0,0.41,827.2,72.1,1
1984262,15874638043,166.0,114.0,-37.0,0,0.415,827.2,72.1,1
1984263,15874646046,207.0,137.0,-23.0,0,0.43,827.2,72.1,1
1984264,15874654043,249.0,164.0,-5.0,0,0.441,827.2,72.1,1
1984265,15874662045,294.0,195.0,16.0,0,0.475,827.2,72.1,1
1984266,15874670043,340.0,230.0,41.0,0,0.522,827.2,72.1,1
1984267,15874678047,383.0,267.0,70.0,0,0.572,827.2,72.1,1
1984268,15874686043,433.0,308.0,101.0,0,0.614,827.2,72.1,1
1984269,15874694043,483.0,350.0,135.0,0,0.662,827.2,72.1,1
1984270,15874702047,511.0,389.0,170.0,0,0.702,827.2,72.1,1
1984271,15874710043,552.0,429.0,206.0,0,0.741,827.2,72.1,1
1984272,15874718043,575.0,464.0,241.0,0,0.768,827.2,72.1,1
1984273,15874726043,597.0,496.0,274.0,0,0.787,827.2,72.1,1
1984274,15874734043,612.0,524.0,306.0,0,0.805,827.2,72.1,1
1984275,15874742043,619.0,547.0,334.0,0,0.803,827.2,72.1,1
1984276,15874750043,622.0,565.0,358.0,0,0.795,827.2,72.1,1
1984277,15874758043,620.0,579.0,379.0,0,0.786,827.2,72.1,1
1984278,15874766046,608.0,586.0,394.0,0,0.754,827.2,72.1,1
1984279,15874774043,595.0,588.0,405.0,0,0.73,827.2,72.1,1
1984280,15874782043,572.0,584.0,411.0,0,0.697,827.2,72.1,1
1984281,15874790043,548.0,575.0,412.0,0,0.663,827.2,72.1,1
1984282,15874798046,526.0,563.0,409.0,1,0.673,827.2,72.1,1
1984283,15874806047,495.0,547.0,401.0,0,0.701,827.2,72.1,1
1984284,15874814043,464.0,527.0,389.0,0,0.721,827.2,72.1,1
1984285,15874822046,429.0,503.0,373.0,0,0.738,827.2,72.1,1
1984286,15874830047,392.0,476.0,353.0,0,0.751,827.2,72.1,1
1984287,15874838047,356.0,447.0,330.0,0,0.754,827.2,72.1,1
1984288,15874846047,320.0,416.0,305.0,0,0.747,827.2,72.1,1
1984289,15874854043,279.0,383.0,276.0,0,0.744,827.2,72.1,1
1984290,15874862044,232.0,346.0,245.0,0,0.727,827.2,72.1,1
1984291,15874870043,207.0,313.0,214.0,0,0.698,827.2,72.1,1
1984292,15874878047,168.0,278.0,180.0,0,0.678,827.2,72.1,1
1984293,15874886043,140.0,244.0,147.0,0,0.641,827.2,72.1,1
1984294,15874894047,106.0,211.0,114.0,0,0.608,827.2,72.1,1
1984295,15874902043,86.0,180.0,81.0,0,0.576,827.2,72.1,1
1984296,15874910045,61.0,151.0,50.0,0,0.538,827.2,72.1,1
1984297,15874918047,44.0,125.0,20.0,0,0.506,824.0,72.1,1
1984298,15874926043,29.0,102.0,-8.0,0,0.508,824.0,72.1,1
1984299,15874934044,20.0,82.0,-33.0,0,0.515,824.0,72.1,1
1984300,15874942045,11.0,65.0,-56.0,0,0.526,824.0,72.1,1
1984301,15874950046,0.0,49.0,-76.0,0,0.528,824.0,72.1,3
1984302,15874958043,0.0,37.0,-94.0,0,0.533,824.0,72.1,3
1984303,15874966047,0.0,28.0,-109.0,0,0.529,824.0,72.1,3
1984304,15874974043,0.0,21.0,-122.0,0,0.529,824.0,72.1,3
1984305,15874982043,0.0,16.0,-132.0,0,0.518,824.0,72.1,3
1984306,15874990043,0.0,12.0,-140.0,0,0.513,824.0,72.1,3
1984307,15874998043,0.0,9.0,-146.0,0,0.505,824.0,72.1,3
1984308,15875006047,0.0,7.0,-151.0,0,0.503,824.0,72.1,3
1984309,15875014043,0.0,5.0,-154.0,0,0.492,824.0,72.1,3
1984310,15875022043,0.0,4.0,-157.0,0,0.494,824.0,72.1,3
1984311,15875030043,0.0,3.0,-159.0,0,0.489,824.0,72.1,3
1984312,15875038045,0.0,2.0,-160.0,0,0.482,824.0,72.1,3
1984313,15875046043,0.0,2.0,-161.0,0,0.483,824.0,72.1,3
1984314,15875054043,0.0,1.0,-161.0,1,0.475,824.0,72.1,3
1984315,15875062045,0.0,1.0,-161.0,0,0.475,824.0,72.1,3
1984316,15875070044,0.0,1.0,-161.0,0,0.474,824.0,72.1,3
1984317,15875078045,0.0,1.0,-161.0,0,0.474,824.0,72.1,3
1984318,15875086047,0.0,0.0,-160.0,0,0.479,824.0,72.1,3
1984319,15875094043,0.0,0.0,-159.0,0,0.477,824.0,72.1,3
1984320,15875102043,0.0,0.0,-159.0,1,0.47,824.0,72.1,3
1984321,15875110045,0.0,0.0,-158.0,0,0.476,824.0,72.1,3
1984322,15875118046,0.0,0.0,-157.0,0,0.474,824.0,72.1,3
1984323,15875126044,0.0,0.0,-156.0,0,0.473,824.0,72.1,3
1984324,15875134044,0.0,0.0,-155.0,0,0.472,824.0,72.1,3
1984325,15875142047,0.0,0.0,-154.0,0,0.471,824.0,72.1,3
1984326,15875150043,0.0,0.0,-153.0,0,0.47,824.0,72.1,3
1984327,15875158045,0.0,0.0,-152.0,0,0.469,824.0,72.1,3
1984328,15875166047,0.0,0.0,-151.0,0,0.468,824.0,72.1,3
1984329,15875174043,0.0,0.0,-150.0,0,0.467,824.0,72.1,3
1984330,15875182047,0.0,0.0,-149.0,0,0.466,824.0,72.1,3
1984331,15875190046,0.0,0.0,-148.0,0,0.465,824.0,72.1,3
1984332,15875198045,0.0,0.0,-147.0,0,0.464,824.0,72.1,3
1984333,15875206044,0.0,0.0,-146.0,0,0.463,824.0,72.1,3
1984334,15875214043,0.0,0.0,-145.0,0,0.462,824.0,72.1,3
1984335,15875222046,0.0,0.0,-144.0,0,0.461,824.0,72.1,3
1984336,15875230045,0.0,0.0,-143.0,0,0.46,824.0,72.1,3
1984337,15875238044,0.0,0.0,-143.0,1,0.453,824.0,72.1,3
1984338,15875246043,0.0,0.0,-142.0,0,0.459,824.0,72.1,3
1984339,15875254043,0.0,0.0,-141.0,0,0.458,824.0,72.1,3
1984340,15875262043,0.0,0.0,-140.0,0,0.457,824.0,72.1,3
1984341,15875270043,0.0,0.0,-139.0,0,0.456,824.0,72.1,3
1984342,15875278045,1.0,0.0,-138.0,0,0.455,824.0,72.1,1
1984343,15875286043,1.0,0.0,-137.0,0,0.454,824.0,72.1,1
1984344,15875294046,11.0,3.0,-135.0,0,0.458,824.0,72.1,1
1984345,15875302045,17.0,6.0,-133.0,0,0.456,824.0,72.1,1
1984346,15875310043,25.0,11.0,-129.0,0,0.466,824.0,72.1,1
1984347,15875318044,27.0,15.0,-126.0,0,0.456,824.0,72.1,1
1984348,15875326045,32.0,19.0,-122.0,0,0.458,824.0,72.1,1
1984349,15875334043,40.0,24.0,-117.0,0,0.46,824.0,72.1,1
1984350,15875342043,44.0,29.0,-112.0,0,0.455,824.0,72.1,1
1984351,15875350044,48.0,34.0,-107.0,0,0.449,824.0,72.1,1
1984352,15875358045,53.0,38.0,-102.0,0,0.444,824.0,72.1,1
1984353,15875366044,55.0,42.0,-97.0,0,0.439,824.0,72.1,1
1984354,15875374043,60.0,47.0,-93.0,0,0.427,824.0,72.1,1
1984355,15875382043,57.0,49.0,-88.0,0,0.429,824.0,72.1,1
1984356,15875390044,68.0,54.0,-84.0,0,0.418,824.0,72.1,1
1984357,15875398045,65.0,56.0,-79.0,0,0.42,824.0,72.1,1
1984358,15875406043,68.0,59.0,-76.0,0,0.403,824.0,72.1,1
1984359,15875414045,74.0,63.0,-72.0,0,0.406,824.0,72.1,1
1984360,15875422043,74.0,66.0,-68.0,0,0.402,824.0,72.1,1
1984361,15875430045,89.0,71.0,-64.0,0,0.398,824.0,72.1,1
1984362,15875438043,96.0,77.0,-59.0,0,0.4,824.0,72.1,1
1984363,15875446044,107.0,84.0,-53.0,0,0.401,824.0,72.1,1
1984364,15875454043,135.0,97.0,-45.0,0,0.407,824.0,72.1,1
1984365,15875462043,161.0,112.0,-36.0,0,0.406,824.0,72.1,1
1984366,15875470043,204.0,135.0,-22.0,0,0.428,824.0,72.1,1
1984367,15875478043,239.0,160.0,-5.0,0,0.433,824.0,72.1,1
1984368,15875486043,292.0,192.0,16.0,0,0.479,824.0,72.1,1
1984369,15875494043,343.0,229.0,41.0,0,0.527,824.0,72.1,1
1984370,15875502043,391.0,268.0,70.0,0,0.577,824.0,72.1,1
1984371,15875510045,444.0,311.0,102.0,0,0.625,824.0,72.1,1
1984372,15875518044,487.0,353.0,137.0,0,0.674,824.0,72.1,1
1984373,15875526045,533.0,397.0,174.0,0,0.719,824.0,72.1,1
1984374,15875534043,571.0,439.0,212.0,0,0.759,824.0,72.1,1
1984375,15875542043,601.0,478.0,250.0,0,0.792,824.0,72.1,1
1984376,15875550047,628.0,515.0,286.0,0,0.813,824.0,72.1,1
1984377,15875558046,647.0,547.0,321.0,0,0.832,824.0,72.1,1
1984378,15875566044,656.0,573.0,352.0,0,0.832,824.0,72.1,1
1984379,15875574043,665.0,595.0,380.0,0,0.831,824.0,72.1,1
1984380,15875582047,663.0,612.0,404.0,0,0.819,824.0,72.1,1
1984381,15875590043,647.0,620.0,422.0,0,0.789,824.0,72.1,1
1984382,15875598043,638.0,625.0,436.0,0,0.766,824.0,72.1,1
1984383,15875606045,613.0,622.0,444.0,0,0.726,824.0,72.1,1
1984384,15875614043,596.0,616.0,447.0,0,0.692,824.0,72.1,1
1984385,15875622045,567.0,604.0,445.0,1,0.683,824.0,72.1,1
1984386,15875630046,539.0,588.0,438.0,0,0.712,824.0,72.1,1
1984387,15875638045,504.0,568.0,427.0,0,0.733,824.0,72.1,1
1984388,15875646043,469.0,544.0,411.0,0,0.758,824.0,72.1,1
1984389,15875654047,436.0,518.0,392.0,0,0.767,824.0,72.1,1
1984390,15875662043,396.0,488.0,369.0,0,0.778,824.0,72.1,1
1984391,15875670043,353.0,455.0,343.0,0,0.777,824.0,72.1,1
1984392,15875678043,313.0,421.0,314.0,0,0.771,824.0,72.1,1
1984393,15875686043,275.0,386.0,283.0,0,0.756,824.0,72.1,1
1984394,15875694043,235.0,349.0,250.0,0,0.736,824.0,72.1,1
1984395,15875702043,193.0,311.0,215.0,0,0.711,824.0,72.1,1
1984396,15875710043,164.0,276.0,180.0,0,0.678,824.0,72.1,1
1984397,15875718043,127.0,240.0,144.0,0,0.645,824.0,72.1,1
1984398,15875726043,101.0,206.0,109.0,0,0.607,824.0,72.1,1
1984399,15875734047,80.0,175.0,76.0,0,0.567,824.0,72.1,1
1984400,15875742043,53.0,146.0,43.0,0,0.536,824.0,72.1,1
1984401,15875750046,40.0,120.0,13.0,0,0.501,824.0,72.1,1
1984402,15875758045,17.0,95.0,-16.0,0,0.521,824.0,72.1,1
1984403,15875766045,8.0,74.0,-42.0,0,0.53,824.0,72.1,1
1984404,15875774047,0.0,56.0,-66.0,0,0.542,824.0,72.1,3
1984405,15875782046,0.0,42.0,-86.0,0,0.539,824.0,72.1,3
1984406,15875790047,0.0,32.0,-104.0,0,0.544,824.0,72.1,3
1984407,15875798044,0.0,24.0,-118.0,0,0.532,824.0,72.1,3
1984408,15875806043,0.0,18.0,-130.0,0,0.531,824.0,72.1,3
1984409,15875814044,0.0,14.0,-139.0,0,0.52,824.0,72.1,3
1984410,15875822043,0.0,11.0,-146.0,0,0.513,824.0,72.1,3
1984411,15875830045,0.0,8.0,-152.0,0,0.512,824.0,72.1,3
1984412,15875838043,0.0,6.0,-156.0,0,0.502,824.0,72.1,3
1984413,15875846043,0.0,5.0,-159.0,0,0.497,824.0,72.1,3
1984414,15875854043,0.0,3.0,-162.0,0,0.5,828.8,72.1,3
1984415,15875862043,0.0,3.0,-163.0,0,0.487,828.8,72.1,3
1984416,15875870043,0.0,2.0,-164.0,0,0.487,828.8,72.1,3
1984417,15875878047,0.0,2.0,-164.0,1,0.48,828.8,72.1,3
1984418,15875886043,0.0,1.0,-165.0,0,0.486,828.8,72.1,3
1984419,15875894043,0.0,1.0,-165.0,1,0.479,828.8,72.1,3
1984420,15875902043,0.0,1.0,-164.0,0,0.484,828.8,72.1,3
1984421,15875910047,0.0,0.0,-164.0,1,0.477,828.8,72.1,3
1984422,15875918046,0.0,0.0,-163.0,0,0.482,828.8,72.1,3
1984423,15875926043,0.0,0.0,-162.0,0,0.48,828.8,72.1,3
1984424,15875934046,0.0,0.0,-162.0,1,0.473,828.8,72.1,3
1984425,15875942043,0.0,0.0,-161.0,0,0.479,828.8,72.1,3
1984426,15875950046,0.0,0.0,-160.0,0,0.477,828.8,72.1,3
1984427,15875958043,0.0,0.0,-159.0,0,0.476,828.8,72.1,3
1984428,15875966046,0.0,0.0,-158.0,0,0.475,828.8,72.1,3
1984429,15875974043,0.0,0.0,-157.0,0,0.474,828.8,72.1,3
1984430,15875982043,0.0,0.0,-156.0,0,0.473,828.8,72.1,3
1984431,15875990047,0.0,0.0,-155.0,0,0.472,828.8,72.1,3
1984432,15875998047,0.0,0.0,-154.0,0,0.471,828.8,72.1,3
1984433,15876006043,0.0,0.0,-153.0,0,0.47,828.8,72.1,3
1984434,15876014043,0.0,0.0,-152.0,0,0.469,828.8,72.1,3
1984435,15876022045,0.0,0.0,-151.0,0,0.468,828.8,72.1,3
1984436,15876030043,0.0,0.0,-150.0,0,0.467,828.8,72.1,3
1984437,15876038045,0.0,0.0,-149.0,0,0.466,828.8,72.1,3
1984438,15876046043,0.0,0.0,-148.0,0,0.465,828.8,72.1,3
1984439,15876054045,0.0,0.0,-147.0,0,0.464,828.8,72.1,3
1984440,15876062046,0.0,0.0,-146.0,0,0.463,828.8,72.1,3
1984441,15876070043,0.0,0.0,-145.0,0,0.462,828.8,72.1,3
1984442,15876078043,0.0,0.0,-144.0,0,0.461,828.8,72.1,3
1984443,15876086043,0.0,0.0,-143.0,0,0.46,828.8,72.1,3
1984444,15876094043,0.0,0.0,-142.0,0,0.459,828.8,72.1,3
1984445,15876102045,0.0,0.0,-141.0,0,0.458,828.8,72.1,3
1984446,15876110043,0.0,0.0,-140.0,0,0.456,828.8,72.1,3
1984447,15876118045,0.0,0.0,-139.0,0,0.455,828.8,72.1,3
1984448,15876126043,0.0,0.0,-138.0,0,0.0,0.0,0.0,2
1984449,15876134043,3.0,1.0,-137.0,0,0.0,0.0,0.0,0
1984450,15876142043,7.0,2.0,-136.0,0,0.0,0.0,0.0,0
1984451,15876150043,16.0,6.0,-134.0,0,0.0,0.0,0.0,0
1984452,15876158046,20.0,9.0,-131.0,0,0.0,0.0,0.0,0
1984453,15876166043,24.0,13.0,-127.0,0,0.0,0.0,0.0,0
1984454,15876174047,30.0,17.0,-124.0,0,0.0,0.0,0.0,0
1984455,15876182043,32.0,21.0,-120.0,0,0.0,0.0,0.0,0
1984456,15876190047,41.0,26.0,-115.0,0,0.0,0.0,0.0,0
1984457,15876198043,44.0,30.0,-111.0,0,0.0,0.0,0.0,0
1984458,15876206047,47.0,34.0,-106.0,0,0.0,0.0,0.0,0
1984459,15876214043,53.0,39.0,-101.0,0,0.0,0.0,0.0,0
1984460,15876222046,51.0,42.0,-97.0,0,0.0,0.0,0.0,0
1984461,15876230043,59.0,46.0,-92.0,0,0.0,0.0,0.0,0
1984462,15876238045,58.0,49.0,-88.0,0,0.0,0.0,0.0,0
1984463,15876246043,60.0,52.0,-84.0,0,0.0,0.0,0.0,0
1984464,15876254045,69.0,56.0,-80.0,0,0.0,0.0,0.0,0
1984465,15876262043,75.0,60.0,-75.0,0,0.0,0.0,0.0,0
1984466,15876270047,97.0,69.0,-70.0,0,0.0,0.0,0.0,0
1984467,15876278043,117.0,81.0,-62.0,0,0.0,0.0,0.0,0
1984468,15876286046,147.0,97.0,-52.0,0,0.0,0.0,0.0,0
1984469,15876294043,187.0,119.0,-39.0,0,0.0,0.0,0.0,0
1984470,15876302043,224.0,144.0,-22.0,0,0.0,0.0,0.0,0
1984471,15876310045,275.0,176.0,-1.0,0,0.0,0.0,0.0,0
1984472,15876318043,323.0,212.0,24.0,0,0.0,0.0,0.0,0
1984473,15876326045,372.0,250.0,53.0,0,0.0,0.0,0.0,0
1984474,15876334043,425.0,293.0,85.0,0,0.0,0.0,0.0,0
1984475,15876342045,468.0,335.0,120.0,0,0.0,0.0,0.0,0
1984476,15876350047,513.0,378.0,157.0,0,0.0,0.0,0.0,0
1984477,15876358043,546.0,419.0,194.0,0,0.0,0.0,0.0,0
1984478,15876366043,575.0,457.0,231.0,0,0.0,0.0,0.0,0
1984479,15876374043,599.0,491.0,266.0,0,0.0,0.0,0.0,0
1984480,15876382043,613.0,521.0,299.0,0,0.0,0.0,0.0,1
1984481,15876390044,628.0,547.0,329.0,0,0.0,0.0,0.0,1
1984482,15876398043,630.0,567.0,356.0,0,0.0,0.0,0.0,1
1984483,15876406043,630.0,582.0,379.0,0,0.0,0.0,0.0,1
1984484,15876414043,624.0,592.0,397.0,0,0.0,0.0,0.0,1
1984485,15876422043,607.0,596.0,410.0,0,0.0,0.0,0.0,1
1984486,15876430043,594.0,595.0,418.0,0,0.0,0.0,0.0,1
1984487,15876438043,569.0,589.0,422.0,0,0.0,0.0,0.0,1
1984488,15876446043,544.0,578.0,420.0,0,0.0,0.0,0.0,1
1984489,15876454043,516.0,563.0,414.0,0,0.0,0.0,0.0,1
1984490,15876462043,481.0,543.0,403.0,0,0.0,0.0,0.0,1
1984491,15876470043,451.0,521.0,388.0,0,0.0,0.0,0.0,1
1984492,15876478043,413.0,495.0,370.0,0,0.0,0.0,0.0,1
1984493,15876486043,374.0,465.0,348.0,0,0.0,0.0,0.0,1
1984494,15876494043,336.0,434.0,322.0,0,0.0,0.0,0.0,1
1984495,15876502043,298.0,401.0,294.0,0,0.0,0.0,0.0,1
1984496,15876510043,263.0,368.0,264.0,0,0.0,0.0,0.0,1
1984497,15876518043,222.0,332.0,233.0,0,0.0,0.0,0.0,1
1984498,15876526043,188.0,297.0,200.0,0,0.0,0.0,0.0,1
1984499,15876534043,160.0,264.0,167.0,0,0.0,0.0,0.0,1
1984500,15876542043,126.0,231.0,133.0,0,0.0,0.0,0.0,1
1984501,15876550043,103.0,200.0,101.0,0,0.0,0.0,0.0,1
1984502,15876558043,77.0,170.0,69.0,0,0.0,0.0,0.0,1
1984503,15876566043,60.0,143.0,38.0,0,0.0,0.0,0.0,1
1984504,15876574043,47.0,120.0,10.0,0,0.0,0.0,0.0,1
1984505,15876582043,31.0,98.0,-16.0,0,0.0,0.0,0.0,1
1984506,15876590043,23.0,80.0,-40.0,0,0.0,0.0,0.0,1
1984507,15876598043,13.0,64.0,-61.0,0,0.0,0.0,0.0,1
1984508,15876606043,7.0,50.0,-80.0,0,0.0,0.0,0.0,1
1984509,15876614043,3.0,39.0,-96.0,0,0.0,0.0,0.0,1
1984510,15876622043,0.0,29.0,-111.0,0,0.0,0.0,0.0,3
1984511,15876630043,0.0,22.0,-122.0,0,0.0,0.0,0.0,3
1984512,15876638043,0.0,17.0,-132.0,0,0.697,0.0,0.0,3
1984513,15876646045,0.0,13.0,-140.0,0,0.677,0.0,0.0,3
1984514,15876654046,0.0,10.0,-146.0,0,0.657,0.0,0.0,3
1984515,15876662043,0.0,7.0,-151.0,0,0.643,0.0,0.0,3
1984516,15876670047,0.0,6.0,-154.0,0,0.623,0.0,0.0,3
1984517,15876678043,0.0,4.0,-157.0,0,0.615,0.0,0.0,3
1984518,15876686047,0.0,3.0,-159.0,0,0.601,0.0,0.0,3
1984519,15876694043,0.0,2.0,-160.0,0,0.587,0.0,0.0,3
1984520,15876702043,0.0,2.0,-161.0,0,0.58,0.0,0.0,3
1984521,15876710043,0.0,1.0,-161.0,0,0.567,0.0,0.0,3
1984522,15876718047,0.0,1.0,-161.0,0,0.56,0.0,0.0,3
1984523,15876726044,0.0,1.0,-161.0,0,0.554,0.0,0.0,3
1984524,15876734043,0.0,1.0,-161.0,0,0.548,0.0,0.0,3
1984525,15876742046,0.0,0.0,-160.0,0,0.548,0.0,0.0,3
1984526,15876750043,0.0,0.0,-160.0,0,0.536,0.0,0.0,3
1984527,15876758046,0.0,0.0,-159.0,0,0.537,0.0,0.0,3
1984528,15876766043,0.0,0.0,-158.0,0,0.531,0.0,0.0,3
1984529,15876774043,0.0,0.0,-157.0,0,0.526,0.0,0.0,3
1984530,15876782043,0.0,0.0,-156.0,0,0.521,0.0,0.0,3
1984531,15876790043,0.0,0.0,-155.0,0,0.517,0.0,0.0,3
1984532,15876798043,0.0,0.0,-154.0,0,0.512,0.0,0.0,3
1984533,15876806046,0.0,0.0,-153.0,0,0.508,0.0,0.0,3
1984534,15876814045,0.0,0.0,-152.0,0,0.504,0.0,0.0,3
1984535,15876822043,0.0,0.0,-151.0,0,0.5,0.0,0.0,3
1984536,15876830043,0.0,0.0,-150.0,0,0.496,0.0,0.0,3
1984537,15876838043,0.0,0.0,-149.0,0,0.493,0.0,0.0,3
1984538,15876846043,0.0,0.0,-149.0,1,0.483,0.0,0.0,3
1984539,15876854043,0.0,0.0,-148.0,0,0.487,0.0,0.0,3
1984540,15876862044,0.0,0.0,-147.0,0,0.483,0.0,0.0,3
1984541,15876870043,0.0,0.0,-146.0,0,0.48,0.0,0.0,3
1984542,15876878043,0.0,0.0,-145.0,0,0.477,0.0,0.0,3
1984543,15876886042,0.0,0.0,-144.0,0,0.474,0.0,0.0,3
1984544,15876894043,0.0,0.0,-143.0,0,0.471,0.0,0.0,3
1984545,15876902045,0.0,0.0,-142.0,0,0.469,0.0,0.0,3
1984546,15876910044,0.0,0.0,-141.0,0,0.466,0.0,0.0,3
1984547,15876918043,0.0,0.0,-140.0,0,0.463,0.0,0.0,3
1984548,15876926043,3.0,1.0,-139.0,0,0.461,0.0,0.0,1
1984549,15876934043,9.0,3.0,-137.0,0,0.465,0.0,0.0,1
1984550,15876942046,12.0,5.0,-135.0,0,0.461,0.0,0.0,1
1984551,15876950043,19.0,8.0,-132.0,0,0.465,0.0,0.0,1
1984552,15876958043,22.0,12.0,-129.0,0,0.461,0.0,0.0,1
1984553,15876966043,27.0,15.0,-126.0,0,0.457,0.0,0.0,1
1984554,15876974044,35.0,20.0,-122.0,0,0.46,0.0,0.0,1
1984555,15876982047,39.0,25.0,-117.0,0,0.462,0.0,0.0,1
1984556,15876990043,46.0,30.0,-113.0,0,0.449,0.0,0.0,1
1984557,15876998043,45.0,34.0,-108.0,0,0.452,0.0,0.0,1
1984558,15877006045,49.0,37.0,-103.0,0,0.446,0.0,0.0,1
1984559,15877014045,51.0,41.0,-99.0,0,0.433,0.0,0.0,1
1984560,15877022047,52.0,43.0,-95.0,0,0.429,0.0,0.0,1
1984561,15877030043,58.0,47.0,-91.0,0,0.424,0.0,0.0,1
1984562,15877038044,59.0,50.0,-87.0,0,0.42,0.0,0.0,1
1984563,15877046044,68.0,54.0,-83.0,0,0.415,0.0,0.0,1
1984564,15877054043,80.0,60.0,-78.0,0,0.418,0.0,0.0,1
1984565,15877062043,85.0,66.0,-72.0,0,0.421,0.0,0.0,1
1984566,15877070043,119.0,79.0,-65.0,0,0.422,0.0,0.0,1
1984567,15877078046,145.0,95.0,-55.0,0,0.439,0.0,0.0,1
1984568,15877086043,180.0,116.0,-42.0,0,0.452,0.0,0.0,1
1984569,15877094043,220.0,141.0,-25.0,0,0.468,0.0,0.0,1
1984570,15877102046,260.0,170.0,-5.0,0,0.48,0.0,0.0,1
1984571,15877110043,312.0,204.0,18.0,0,0.519,0.0,0.0,1
1984572,15877118045,357.0,241.0,46.0,0,0.571,0.0,0.0,1
1984573,15877126044,403.0,281.0,76.0,0,0.608,0.0,0.0,1
1984574,15877134043,447.0,321.0,109.0,0,0.652,0.0,0.0,1
1984575,15877142043,482.0,360.0,144.0,0,0.692,0.0,0.0,1
1984576,15877150046,519.0,398.0,179.0,0,0.725,0.0,0.0,1
1984577,15877158043,541.0,433.0,213.0,0,0.75,0.0,0.0,1
1984578,15877166043,564.0,465.0,246.0,0,0.772,0.0,0.0,1
1984579,15877174043,576.0,492.0,276.0,0,0.78,0.0,0.0,1
1984580,15877182043,580.0,513.0,304.0,0,0.787,0.0,0.0,1
1984581,15877190043,584.0,530.0,327.0,0,0.771,0.0,0.0,1
1984582,15877198043,576.0,541.0,347.0,0,0.762,0.0,0.0,1
1984583,15877206043,567.0,548.0,361.0,0,0.726,0.0,0.0,1
1984584,15877214043,550.0,548.0,371.0,0,0.7,0.0,0.0,1
1984585,15877222043,528.0,543.0,376.0,0,0.663,0.0,0.0,1
1984586,15877230043,508.0,535.0,377.0,0,0.633,0.0,0.0,1
1984587,15877238043,479.0,521.0,372.0,1,0.654,0.0,0.0,1
1984588,15877246043,451.0,504.0,364.0,0,0.666,0.0,0.0,1
1984589,15877254043,420.0,484.0,351.0,0,0.691,0.0,0.0,1
1984590,15877262046,381.0,459.0,335.0,0,0.698,0.0,0.0,1
1984591,15877270043,348.0,432.0,315.0,0,0.706,0.0,0.0,1
1984592,15877278046,308.0,402.0,291.0,0,0.708,0.0,0.0,1
1984593,15877286046,272.0,370.0,265.0,0,0.694,0.0,0.0,1
1984594,15877294043,235.0,338.0,237.0,0,0.675,0.0,0.0,1
1984595,15877302044,197.0,304.0,207.0,0,0.654,0.0,0.0,1
1984596,15877310043,166.0,270.0,175.0,0,0.629,0.0,0.0,1
1984597,15877318043,137.0,238.0,144.0,0,0.592,0.0,0.0,1
1984598,15877326045,111.0,207.0,112.0,0,0.564,0.0,0.0,1
1984599,15877334045,91.0,179.0,82.0,0,0.526,0.0,0.0,1
1984600,15877342047,65.0,151.0,52.0,0,0.499,0.0,0.0,1
1984601,15877350043,57.0,128.0,24.0,0,0.51,0.0,0.0,1
1984602,15877358044,43.0,108.0,-1.0,0,0.517,0.0,0.0,1
1984603,15877366045,32.0,89.0,-25.0,0,0.534,0.0,0.0,1
1984604,15877374047,25.0,74.0,-46.0,0,0.537,0.0,0.0,1
1984605,15877382043,17.0,60.0,-64.0,0,0.536,0.0,0.0,1
1984606,15877390044,19.0,50.0,-80.0,0,0.539,0.0,0.0,1
1984607,15877398043,11.0,41.0,-94.0,0,0.54,0.0,0.0,1
1984608,15877406043,12.0,34.0,-106.0,0,0.538,0.0,0.0,1
1984609,15877414046,11.0,28.0,-115.0,0,0.526,0.0,0.0,1
1984610,15877422045,6.0,23.0,-123.0,0,0.526,0.0,0.0,1
1984611,15877430044,12.0,20.0,-130.0,0,0.526,0.0,0.0,1
1984612,15877438043,8.0,17.0,-135.0,0,0.517,0.0,0.0,1
1984613,15877446043,7.0,15.0,-139.0,0,0.513,0.0,0.0,1
1984614,15877454043,7.0,13.0,-142.0,0,0.508,0.0,0.0,1
1984615,15877462043,1.0,10.0,-145.0,0,0.51,0.0,0.0,1
1984616,15877470043,4.0,9.0,-147.0,0,0.505,0.0,0.0,1
1984617,15877478043,0.0,6.0,-149.0,0,0.505,0.0,0.0,3
1984618,15877486047,0.0,5.0,-150.0,0,0.499,0.0,0.0,3
1984619,15877494043,0.0,4.0,-151.0,0,0.499,0.0,0.0,3
1984620,15877502046,0.0,3.0,-152.0,0,0.499,0.0,0.0,3
1984621,15877510043,0.0,2.0,-152.0,1,0.491,0.0,0.0,3
1984622,15877518046,0.0,2.0,-152.0,0,0.49,0.0,0.0,3
1984623,15877526046,0.0,1.0,-152.0,0,0.489,0.0,0.0,3
1984624,15877534043,0.0,1.0,-152.0,0,0.488,0.0,0.0,3
1984625,15877542043,0.0,1.0,-152.0,0,0.487,0.0,0.0,3
1984626,15877550045,0.0,1.0,-151.0,0,0.491,0.0,0.0,3
1984627,15877558043,0.0,0.0,-150.0,0,0.489,0.0,0.0,3
1984628,15877566045,0.0,0.0,-150.0,1,0.482,0.0,0.0,3
1984629,15877574047,0.0,0.0,-149.0,0,0.486,0.0,0.0,3
1984630,15877582043,0.0,0.0,-148.0,0,0.484,0.0,0.0,3
1984631,15877590046,0.0,0.0,-147.0,0,0.482,0.0,0.0,3
1984632,15877598043,0.0,0.0,-147.0,1,0.475,0.0,0.0,3
1984633,15877606043,0.0,0.0,-146.0,0,0.479,0.0,0.0,3
1984634,15877614043,0.0,0.0,-145.0,0,0.477,0.0,0.0,3
1984635,15877622047,0.0,0.0,-144.0,0,0.476,0.0,0.0,3
1984636,15877630043,0.0,0.0,-143.0,0,0.474,0.0,0.0,3
1984637,15877638046,0.0,0.0,-142.0,0,0.472,0.0,0.0,3
1984638,15877646043,0.0,0.0,-141.0,0,0.47,0.0,0.0,3
1984639,15877654045,0.0,0.0,-140.0,0,0.468,0.0,0.0,3
1984640,15877662046,1.0,0.0,-139.0,0,0.467,0.0,0.0,1
1984641,15877670043,6.0,2.0,-138.0,0,0.465,0.0,0.0,1
1984642,15877678043,8.0,3.0,-136.0,0,0.469,0.0,0.0,1
1984643,15877686046,12.0,5.0,-134.0,0,0.466,0.0,0.0,1
1984644,15877694044,20.0,9.0,-131.0,0,0.469,0.0,0.0,1
1984645,15877702045,20.0,12.0,-128.0,0,0.466,0.0,0.0,1
1984646,15877710043,31.0,16.0,-125.0,0,0.462,0.0,0.0,1
1984647,15877718043,32.0,20.0,-121.0,0,0.464,0.0,0.0,1
1984648,15877726043,36.0,24.0,-117.0,0,0.46,0.0,0.0,1
1984649,15877734043,41.0,28.0,-112.0,0,0.461,0.0,0.0,1
1984650,15877742043,40.0,31.0,-108.0,0,0.449,0.0,0.0,1
1984651,15877750043,47.0,35.0,-104.0,0,0.445,0.0,0.0,1
1984652,15877758043,51.0,39.0,-100.0,0,0.44,0.0,0.0,1
1984653,15877766043,43.0,40.0,-96.0,0,0.435,0.0,0.0,1
1984654,15877774043,60.0,45.0,-92.0,0,0.431,0.0,0.0,1
1984655,15877782043,60.0,48.0,-88.0,0,0.426,0.0,0.0,1
1984656,15877790043,66.0,53.0,-84.0,0,0.422,0.0,0.0,1
1984657,15877798043,68.0,56.0,-80.0,0,0.417,0.0,0.0,1
1984658,15877806043,73.0,60.0,-75.0,0,0.419,0.0,0.0,1
1984659,15877814043,79.0,65.0,-71.0,0,0.407,0.0,0.0,1
1984660,15877822043,85.0,70.0,-66.0,0,0.409,0.0,0.0,1
1984661,15877830043,107.0,79.0,-60.0,0,0.411,0.0,0.0,1
1984662,15877838043,124.0,90.0,-53.0,0,0.411,0.0,0.0,1
1984663,15877846043,154.0,105.0,-43.0,0,0.425,0.0,0.0,1
1984664,15877854043,189.0,126.0,-30.0,0,0.435,0.0,0.0,1
1984665,15877862043,224.0,149.0,-14.0,0,0.442,0.0,0.0,1
1984666,15877870043,272.0,179.0,6.0,0,0.475,0.0,0.0,1
1984667,15877878043,311.0,211.0,29.0,0,0.517,0.0,0.0,1
1984668,15877886043,360.0,247.0,55.0,0,0.56,0.0,0.0,1
1984669,15877894043,403.0,285.0,85.0,0,0.611,0.0,0.0,1
1984670,15877902044,446.0,324.0,117.0,0,0.654,0.0,0.0,1
1984671,15877910043,487.0,364.0,150.0,0,0.693,0.0,0.0,1
1984672,15877918043,521.0,402.0,185.0,0,0.736,0.0,0.0,1
1984673,15877926045,548.0,437.0,219.0,0,0.764,0.0,0.0,1
1984674,15877934046,569.0,469.0,252.0,0,0.788,0.0,0.0,1
1984675,15877942043,579.0,496.0,282.0,0,0.797,0.0,0.0,1
1984676,15877950044,589.0,518.0,309.0,0,0.8,0.0,0.0,1
1984677,15877958043,587.0,535.0,333.0,0,0.797,0.0,0.0,1
1984678,15877966043,585.0,547.0,353.0,0,0.782,0.0,0.0,1
1984679,15877974045,572.0,553.0,368.0,0,0.754,0.0,0.0,1
1984680,15877982043,555.0,554.0,378.0,0,0.721,0.0,0.0,1
1984681,15877990046,540.0,550.0,383.0,0,0.685,0.0,0.0,1
1984682,15877998047,517.0,542.0,384.0,0,0.656,0.0,0.0,1
1984683,15878006043,492.0,530.0,380.0,1,0.672,0.0,0.0,1
1984684,15878014043,461.0,513.0,372.0,0,0.695,0.0,0.0,1
1984685,15878022045,428.0,493.0,360.0,0,0.715,0.0,0.0,1
1984686,15878030043,397.0,469.0,344.0,0,0.732,0.0,0.0,1
1984687,15878038047,358.0,442.0,324.0,0,0.744,0.0,0.0,1
1984688,15878046043,321.0,413.0,302.0,0,0.738,0.0,0.0,1
1984689,15878054045,284.0,382.0,276.0,0,0.738,0.0,0.0,1
1984690,15878062043,245.0,349.0,248.0,0,0.721,0.0,0.0,1
1984691,15878070046,212.0,315.0,218.0,0,0.7,0.0,0.0,1
1984692,15878078045,176.0,282.0,187.0,0,0.672,0.0,0.0,1
1984693,15878086043,144.0,248.0,155.0,0,0.641,0.0,0.0,1
1984694,15878094043,117.0,216.0,123.0,0,0.606,0.0,0.0,1
1984695,15878102046,94.0,187.0,91.0,0,0.572,0.0,0.0,1
1984696,15878110043,75.0,160.0,61.0,0,0.533,0.0,0.0,1
1984697,15878118043,56.0,135.0,33.0,0,0.497,0.0,0.0,1
1984698,15878126045,44.0,113.0,6.0,0,0.508,0.0,0.0,1
1984699,15878134043,30.0,93.0,-19.0,0,0.521,0.0,0.0,1
1984700,15878142044,20.0,75.0,-41.0,0,0.526,0.0,0.0,1
1984701,15878150043,18.0,61.0,-61.0,0,0.534,0.0,0.0,1
1984702,15878158043,12.0,49.0,-78.0,0,0.533,0.0,0.0,1
1984703,15878166043,12.0,40.0,-93.0,0,0.535,0.0,0.0,1
1984704,15878174047,8.0,32.0,-105.0,0,0.527,0.0,0.0,1
1984705,15878182047,4.0,26.0,-116.0,0,0.531,0.0,0.0,1
1984706,15878190043,6.0,21.0,-124.0,0,0.518,0.0,0.0,1
1984707,15878198043,4.0,17.0,-131.0,0,0.518,0.0,0.0,1
1984708,15878206044,2.0,13.0,-137.0,0,0.517,0.0,0.0,1
1984709,15878214043,2.0,10.0,-142.0,0,0.515,0.0,0.0,1
1984710,15878222046,0.0,8.0,-145.0,0,0.504,0.0,0.0,3
1984711,15878230044,0.0,6.0,-148.0,0,0.506,0.0,0.0,3
1984712,15878238043,0.0,5.0,-151.0,0,0.509,0.0,0.0,3
1984713,15878246043,0.0,3.0,-152.0,0,0.496,0.0,0.0,3
1984714,15878254045,0.0,3.0,-153.0,0,0.496,0.0,0.0,3
1984715,15878262046,0.0,2.0,-154.0,0,0.497,0.0,0.0,3
1984716,15878270044,0.0,1.0,-154.0,1,0.49,0.0,0.0,3
1984717,15878278043,0.0,1.0,-154.0,0,0.489,0.0,0.0,3
1984718,15878286047,0.0,1.0,-154.0,0,0.488,0.0,0.0,3
1984719,15878294043,0.0,1.0,-154.0,0,0.488,0.0,0.0,3
1984720,15878302047,0.0,0.0,-153.0,0,0.492,0.0,0.0,3
1984721,15878310043,0.0,0.0,-153.0,1,0.485,0.0,0.0,3
1984722,15878318045,0.0,0.0,-152.0,0,0.49,0.0,0.0,3
1984723,15878326047,0.0,0.0,-151.0,0,0.488,0.0,0.0,3
1984724,15878334043,0.0,0.0,-150.0,0,0.487,0.0,0.0,3
1984725,15878342043,0.0,0.0,-149.0,0,0.485,0.0,0.0,3
1984726,15878350043,0.0,0.0,-148.0,0,0.483,0.0,0.0,3
1984727,15878358043,0.0,0.0,-148.0,1,0.476,0.0,0.0,3
1984728,15878366043,0.0,0.0,-147.0,0,0.481,0.0,0.0,3
1984729,15878374043,0.0,0.0,-146.0,0,0.48,0.0,0.0,3
1984730,15878382045,0.0,0.0,-145.0,0,0.478,0.0,0.0,3
1984731,15878390043,0.0,0.0,-144.0,0,0.476,0.0,0.0,3
1984732,15878398043,0.0,0.0,-143.0,0,0.475,0.0,0.0,3
1984733,15878406043,0.0,0.0,-142.0,0,0.473,0.0,0.0,3
1984734,15878414044,0.0,0.0,-141.0,0,0.472,0.0,0.0,3
1984735,15878422047,1.0,0.0,-140.0,0,0.47,0.0,0.0,1
1984736,15878430043,7.0,2.0,-139.0,0,0.469,768.0,0.0,1
1984737,15878438043,11.0,4.0,-137.0,0,0.473,768.0,0.0,1
1984738,15878446048,16.0,7.0,-134.0,0,0.476,768.0,0.0,1
1984739,15878454047,21.0,10.0,-131.0,0,0.473,768.0,0.0,1
1984740,15878462045,22.0,13.0,-128.0,0,0.469,768.0,0.0,1
1984741,15878470046,32.0,18.0,-125.0,0,0.465,768.0,0.0,1
1984742,15878478044,32.0,21.0,-121.0,0,0.468,768.0,0.0,1
1984743,15878486044,36.0,25.0,-117.0,0,0.463,768.0,0.0,1
1984744,15878494043,38.0,28.0,-113.0,0,0.458,768.0,0.0,1
1984745,15878502043,37.0,30.0,-109.0,0,0.454,768.0,0.0,1
1984746,15878510043,47.0,34.0,-105.0,0,0.449,768.0,0.0,1
1984747,15878518043,48.0,38.0,-101.0,0,0.444,768.0,0.0,1
1984748,15878526043,49.0,40.0,-97.0,0,0.44,768.0,0.0,1
1984749,15878534044,52.0,43.0,-94.0,0,0.429,768.0,0.0,1
1984750,15878542043,48.0,44.0,-91.0,0,0.425,768.0,0.0,1
1984751,15878550043,56.0,47.0,-87.0,0,0.428,768.0,0.0,1
1984752,15878558043,52.0,48.0,-85.0,0,0.411,768.0,0.0,1
1984753,15878566043,59.0,51.0,-82.0,0,0.415,768.0,0.0,1
1984754,15878574043,63.0,54.0,-79.0,0,0.412,768.0,0.0,1
1984755,15878582047,69.0,58.0,-75.0,0,0.414,768.0,0.0,1
1984756,15878590045,84.0,64.0,-71.0,0,0.41,768.0,0.0,1
1984757,15878598047,98.0,72.0,-66.0,0,0.412,768.0,0.0,1
1984758,15878606047,125.0,85.0,-58.0,0,0.426,768.0,0.0,1
1984759,15878614043,156.0,102.0,-47.0,0,0.438,768.0,0.0,1
1984760,15878622043,189.0,123.0,-34.0,0,0.44,768.0,0.0,1
1984761,15878630044,230.0,149.0,-17.0,0,0.452,768.0,0.0,1
1984762,15878638043,276.0,180.0,4.0,0,0.475,768.0,0.0,1
1984763,15878646045,324.0,215.0,28.0,0,0.517,768.0,0.0,1
1984764,15878654044,377.0,254.0,57.0,0,0.573,768.0,0.0,1
1984765,15878662043,419.0,294.0,89.0,0,0.62,768.0,0.0,1
1984766,15878670043,465.0,336.0,123.0,0,0.665,768.0,0.0,1
1984767,15878678046,502.0,376.0,158.0,0,0.707,768.0,0.0,1
1984768,15878686047,542.0,416.0,194.0,0,0.747,768.0,0.0,1
1984769,15878694045,569.0,453.0,230.0,0,0.781,768.0,0.0,1
1984770,15878702043,595.0,488.0,265.0,0,0.806,768.0,0.0,1
1984771,15878710047,611.0,518.0,297.0,0,0.818,768.0,0.0,1
1984772,15878718043,619.0,542.0,327.0,0,0.828,768.0,0.0,1
1984773,15878726046,622.0,561.0,353.0,0,0.822,768.0,0.0,1
1984774,15878734043,616.0,575.0,374.0,0,0.802,768.0,0.0,1
1984775,15878742047,610.0,583.0,391.0,0,0.782,768.0,0.0,1
1984776,15878750043,603.0,588.0,404.0,0,0.758,768.0,0.0,1
1984777,15878758043,579.0,586.0,411.0,0,0.716,768.0,0.0,1
1984778,15878766043,556.0,579.0,414.0,0,0.688,768.0,0.0,1
1984779,15878774047,529.0,567.0,412.0,1,0.678,768.0,0.0,1
1984780,15878782043,501.0,551.0,405.0,0,0.709,768.0,0.0,1
1984781,15878790043,469.0,531.0,393.0,0,0.739,768.0,0.0,1
1984782,15878798043,434.0,507.0,378.0,0,0.751,768.0,0.0,1
1984783,15878806043,404.0,482.0,359.0,0,0.766,768.0,0.0,1
1984784,15878814043,367.0,454.0,337.0,0,0.77,768.0,0.0,1
1984785,15878822043,325.0,423.0,312.0,0,0.768,768.0,0.0,1
1984786,15878830043,290.0,391.0,284.0,0,0.761,768.0,0.0,1
1984787,15878838043,250.0,357.0,255.0,0,0.739,768.0,0.0,1
1984788,15878846043,214.0,322.0,223.0,0,0.721,768.0,0.0,1
1984789,15878854043,176.0,287.0,190.0,0,0.69,768.0,0.0,1
1984790,15878862043,150.0,254.0,157.0,0,0.655,768.0,0.0,1
1984791,15878870043,117.0,220.0,124.0,0,0.619,768.0,0.0,1
1984792,15878878043,88.0,188.0,91.0,0,0.583,768.0,0.0,1
1984793,15878886045,70.0,160.0,60.0,0,0.543,768.0,0.0,1
1984794,15878894046,49.0,133.0,30.0,0,0.51,768.0,0.0,1
1984795,15878902043,32.0,108.0,1.0,0,0.517,768.0,0.0,1
1984796,15878910043,19.0,87.0,-25.0,0,0.527,768.0,0.0,1
1984797,15878918043,4.0,67.0,-49.0,0,0.541,768.0,0.0,1
1984798,15878926043,0.0,50.0,-71.0,0,0.552,768.0,0.0,3
1984799,15878934043,0.0,38.0,-90.0,0,0.553,768.0,0.0,3
1984800,15878942043,0.0,29.0,-106.0,0,0.551,768.0,0.0,3
1984801,15878950043,0.0,22.0,-119.0,0,0.543,768.0,0.0,3
1984802,15878958043,0.0,17.0,-129.0,0,0.532,768.0,0.0,3
1984803,15878966043,0.0,13.0,-138.0,0,0.534,768.0,0.0,3
1984804,15878974043,0.0,10.0,-144.0,0,0.518,768.0,0.0,3
1984805,15878982043,0.0,7.0,-149.0,0,0.516,768.0,0.0,3
1984806,15878990045,0.0,5.0,-153.0,0,0.512,768.0,0.0,3
1984807,15878998043,0.0,4.0,-156.0,0,0.508,768.0,0.0,3
1984808,15879006043,0.0,3.0,-158.0,0,0.503,768.0,0.0,3
1984809,15879014043,0.0,2.0,-159.0,0,0.496,768.0,0.0,3
1984810,15879022043,0.0,2.0,-160.0,0,0.497,768.0,0.0,3
1984811,15879030043,0.0,1.0,-160.0,1,0.489,768.0,0.0,3
1984812,15879038043,0.0,1.0,-160.0,0,0.489,768.0,0.0,3
1984813,15879046043,0.0,1.0,-160.0,0,0.488,768.0,0.0,3
1984814,15879054043,0.0,1.0,-160.0,0,0.487,768.0,0.0,3
1984815,15879062043,0.0,0.0,-159.0,0,0.491,768.0,0.0,3
1984816,15879070043,0.0,0.0,-158.0,0,0.489,768.0,0.0,3
1984817,15879078043,0.0,0.0,-158.0,1,0.481,768.0,78.1,3
1984818,15879086043,0.0,0.0,-157.0,0,0.486,768.0,78.1,3
1984819,15879094046,0.0,0.0,-156.0,0,0.483,768.0,78.1,3
1984820,15879102045,0.0,0.0,-155.0,0,0.481,768.0,78.1,3
1984821,15879110043,0.0,0.0,-154.0,0,0.479,768.0,78.1,3
1984822,15879118043,0.0,0.0,-153.0,0,0.477,768.0,78.1,3
1984823,15879126043,0.0,0.0,-152.0,0,0.475,768.0,78.1,3
1984824,15879134043,0.0,0.0,-151.0,0,0.473,768.0,78.1,3
1984825,15879142044,0.0,0.0,-150.0,0,0.471,768.0,78.1,3
1984826,15879150043,0.0,0.0,-149.0,0,0.469,768.0,78.1,3
1984827,15879158043,0.0,0.0,-148.0,0,0.468,768.0,78.1,3
1984828,15879166043,0.0,0.0,-147.0,0,0.466,768.0,78.1,3
1984829,15879174043,0.0,0.0,-147.0,1,0.459,768.0,78.1,3
1984830,15879182043,0.0,0.0,-146.0,0,0.464,768.0,78.1,3
1984831,15879190045,0.0,0.0,-145.0,0,0.463,768.0,78.1,3
1984832,15879198045,0.0,0.0,-144.0,0,0.462,768.0,78.1,3
1984833,15879206043,0.0,0.0,-143.0,0,0.461,768.0,78.1,3
1984834,15879214043,0.0,0.0,-142.0,0,0.46,768.0,78.1,3
1984835,15879222043,0.0,0.0,-141.0,0,0.458,768.0,78.1,3
1984836,15879230046,0.0,0.0,-140.0,0,0.457,768.0,78.1,3
1984837,15879238043,0.0,0.0,-139.0,0,0.456,768.0,78.1,3
1984838,15879246043,0.0,0.0,-138.0,0,0.455,768.0,78.1,3
1984839,15879254045,0.0,0.0,-137.0,0,0.454,768.0,78.1,3
1984840,15879262045,4.0,1.0,-136.0,0,0.453,768.0,78.1,1
1984841,15879270043,10.0,3.0,-134.0,0,0.458,768.0,78.1,1
1984842,15879278045,13.0,6.0,-132.0,0,0.456,768.0,78.1,1
1984843,15879286043,18.0,9.0,-129.0,0,0.46,768.0,78.1,1
1984844,15879294044,20.0,11.0,-127.0,0,0.45,768.0,78.1,1
1984845,15879302043,23.0,14.0,-123.0,0,0.46,768.0,78.1,1
1984846,15879310044,26.0,17.0,-120.0,0,0.45,768.0,78.1,1
1984847,15879318043,28.0,20.0,-117.0,0,0.446,768.0,78.1,1
1984848,15879326043,34.0,23.0,-113.0,0,0.449,768.0,78.1,1
1984849,15879334043,35.0,26.0,-110.0,0,0.439,768.0,78.1,1
1984850,15879342043,41.0,30.0,-106.0,0,0.442,768.0,78.1,1
1984851,15879350047,52.0,35.0,-102.0,0,0.437,768.0,78.1,1
1984852,15879358043,60.0,41.0,-97.0,0,0.439,768.0,78.1,1
1984853,15879366044,80.0,51.0,-90.0,0,0.446,768.0,78.1,1
1984854,15879374045,108.0,64.0,-82.0,0,0.445,768.0,78.1,1
1984855,15879382043,137.0,82.0,-70.0,0,0.463,768.0,78.1,1
1984856,15879390043,175.0,105.0,-56.0,0,0.462,768.0,78.1,1
1984857,15879398043,220.0,133.0,-37.0,0,0.478,768.0,78.1,1
1984858,15879406043,269.0,166.0,-15.0,0,0.474,768.0,78.1,1
1984859,15879414043,320.0,203.0,12.0,0,0.522,768.0,78.1,1
1984860,15879422043,368.0,243.0,42.0,0,0.568,768.0,78.1,1
1984861,15879430043,421.0,286.0,76.0,0,0.622,768.0,78.1,1
1984862,15879438043,461.0,329.0,111.0,0,0.665,768.0,78.1,1
1984863,15879446043,508.0,372.0,149.0,0,0.716,768.0,78.1,1
1984864,15879454043,543.0,414.0,187.0,0,0.756,768.0,78.1,1
1984865,15879462047,572.0,452.0,224.0,0,0.788,768.0,78.1,1
1984866,15879470046,595.0,487.0,261.0,0,0.818,768.0,78.1,1
1984867,15879478046,610.0,517.0,294.0,0,0.827,768.0,78.1,1
1984868,15879486044,620.0,542.0,325.0,0,0.836,768.0,78.1,1
1984869,15879494043,625.0,562.0,351.0,0,0.825,768.0,78.1,1
1984870,15879502046,615.0,575.0,373.0,0,0.811,768.0,78.1,1
1984871,15879510043,611.0,584.0,390.0,0,0.785,768.0,78.1,1
1984872,15879518043,592.0,586.0,403.0,0,0.761,768.0,78.1,1
1984873,15879526045,576.0,583.0,410.0,0,0.72,768.0,78.1,1
1984874,15879534043,552.0,576.0,412.0,0,0.685,768.0,78.1,1
1984875,15879542043,524.0,563.0,409.0,1,0.688,768.0,78.1,1
1984876,15879550043,500.0,548.0,402.0,0,0.711,768.0,78.1,1
1984877,15879558043,466.0,528.0,391.0,0,0.732,768.0,78.1,1
1984878,15879566043,432.0,505.0,375.0,0,0.757,768.0,78.1,1
1984879,15879574045,400.0,479.0,356.0,0,0.765,768.0,78.1,1
1984880,15879582043,360.0,450.0,334.0,0,0.767,768.0,78.1,1
1984881,15879590045,324.0,420.0,309.0,0,0.765,768.0,78.1,1
1984882,15879598043,286.0,387.0,281.0,0,0.756,768.0,78.1,1
1984883,15879606046,245.0,353.0,251.0,0,0.737,768.0,78.1,1
1984884,15879614043,213.0,319.0,220.0,0,0.71,768.0,78.1,1
1984885,15879622046,176.0,284.0,188.0,0,0.68,768.0,78.1,1
1984886,15879630043,149.0,251.0,155.0,0,0.647,768.0,78.1,1
1984887,15879638047,115.0,218.0,122.0,0,0.61,768.0,78.1,1
1984888,15879646043,93.0,188.0,90.0,0,0.571,768.0,78.1,1
1984889,15879654043,69.0,159.0,59.0,0,0.534,768.0,78.1,1
1984890,15879662044,44.0,131.0,28.0,0,0.504,768.0,78.1,1
1984891,15879670045,36.0,108.0,0.0,0,0.509,768.0,78.1,1
1984892,15879678046,18.0,86.0,-26.0,0,0.525,776.0,78.1,1
1984893,15879686043,12.0,68.0,-49.0,0,0.532,776.0,78.1,1
1984894,15879694043,4.0,53.0,-70.0,0,0.542,776.0,78.1,1
1984895,15879702046,0.0,40.0,-89.0,0,0.55,776.0,78.1,3
1984896,15879710047,0.0,30.0,-104.0,0,0.54,776.0,78.1,3
1984897,15879718043,0.0,23.0,-117.0,0,0.54,776.0,78.1,3
1984898,15879726043,0.0,17.0,-128.0,0,0.538,776.0,78.1,3
1984899,15879734047,0.0,13.0,-136.0,0,0.525,776.0,78.1,3
1984900,15879742045,0.0,10.0,-143.0,0,0.525,776.0,78.1,3
1984901,15879750043,0.0,8.0,-148.0,0,0.515,776.0,78.1,3
1984902,15879758043,0.0,6.0,-152.0,0,0.512,776.0,78.1,3
1984903,15879766045,0.0,4.0,-155.0,0,0.507,776.0,78.1,3
1984904,15879774047,0.0,3.0,-157.0,0,0.502,776.0,78.1,3
1984905,15879782046,0.0,2.0,-158.0,0,0.496,776.0,78.1,3
1984906,15879790045,0.0,2.0,-159.0,0,0.496,776.0,78.1,3
1984907,15879798043,0.0,1.0,-160.0,0,0.496,776.0,78.1,3
1984908,15879806046,0.0,1.0,-160.0,1,0.489,776.0,78.1,3
1984909,15879814044,0.0,1.0,-160.0,0,0.488,776.0,78.1,3
1984910,15879822047,0.0,1.0,-159.0,0,0.492,776.0,78.1,3
1984911,15879830043,0.0,0.0,-159.0,1,0.485,776.0,78.1,3
1984912,15879838043,0.0,0.0,-158.0,0,0.489,776.0,78.1,3
1984913,15879846043,0.0,0.0,-157.0,0,0.487,769.6,78.1,3
1984914,15879854044,0.0,0.0,-157.0,1,0.479,769.6,78.1,3
1984915,15879862045,0.0,0.0,-156.0,0,0.483,769.6,78.1,3
1984916,15879870046,0.0,0.0,-155.0,0,0.481,769.6,78.1,3
1984917,15879878043,0.0,0.0,-154.0,0,0.479,769.6,78.1,3
1984918,15879886046,0.0,0.0,-153.0,0,0.477,769.6,78.1,3
1984919,15879894043,0.0,0.0,-152.0,0,0.475,769.6,78.1,3
1984920,15879902047,0.0,0.0,-151.0,0,0.473,769.6,78.1,3
1984921,15879910043,0.0,0.0,-150.0,0,0.471,769.6,78.1,3
1984922,15879918043,0.0,0.0,-149.0,0,0.469,769.6,78.1,3
1984923,15879926046,0.0,0.0,-148.0,0,0.467,769.6,78.1,3
1984924,15879934043,0.0,0.0,-147.0,0,0.466,769.6,78.1,3
1984925,15879942045,0.0,0.0,-146.0,0,0.464,769.6,78.1,3
1984926,15879950043,0.0,0.0,-145.0,0,0.463,769.6,78.1,3
1984927,15879958044,0.0,0.0,-144.0,0,0.461,769.6,78.1,3
1984928,15879966043,0.0,0.0,-143.0,0,0.46,769.6,78.1,3
1984929,15879974045,0.0,0.0,-142.0,0,0.459,769.6,78.1,3
1984930,15879982043,0.0,0.0,-141.0,0,0.457,769.6,78.1,3
1984931,15879990046,0.0,0.0,-141.0,1,0.45,768.0,78.1,3
1984932,15879998047,0.0,0.0,-140.0,0,0.456,768.0,78.1,3
1984933,15880006043,0.0,0.0,-139.0,0,0.455,768.0,78.1,3
1984934,15880014043,0.0,0.0,-138.0,0,0.454,768.0,78.1,3
1984935,15880022043,0.0,0.0,-137.0,0,0.453,768.0,78.1,3
1984936,15880030047,9.0,2.0,-135.0,0,0.457,768.0,78.1,1
1984937,15880038043,10.0,4.0,-133.0,0,0.455,768.0,78.1,1
1984938,15880046043,21.0,8.0,-131.0,0,0.453,768.0,78.1,1
1984939,15880054046,22.0,12.0,-128.0,0,0.457,768.0,78.1,1
1984940,15880062043,28.0,16.0,-124.0,0,0.459,768.0,78.1,1
1984941,15880070043,33.0,20.0,-120.0,0,0.455,768.0,78.1,1
1984942,15880078043,35.0,23.0,-116.0,0,0.45,768.0,78.1,1
1984943,15880086043,44.0,28.0,-111.0,0,0.452,768.0,78.1,1
1984944,15880094043,45.0,32.0,-107.0,0,0.441,768.0,78.1,1
1984945,15880102045,48.0,36.0,-102.0,0,0.442,768.0,78.1,1
1984946,15880110045,48.0,39.0,-98.0,0,0.431,768.0,78.1,1
1984947,15880118045,48.0,41.0,-94.0,0,0.427,768.0,78.1,1
1984948,15880126043,52.0,44.0,-91.0,0,0.416,768.0,78.1,1
1984949,15880134045,61.0,48.0,-87.0,0,0.419,768.0,78.1,1
1984950,15880142043,68.0,53.0,-82.0,0,0.421,768.0,78.1,1
1984951,15880150043,82.0,60.0,-77.0,0,0.416,768.0,78.1,1
1984952,15880158043,101.0,70.0,-70.0,0,0.423,768.0,78.1,1
1984953,15880166045,127.0,84.0,-62.0,0,0.422,768.0,78.1,1
1984954,15880174043,163.0,103.0,-50.0,0,0.439,768.0,78.1,1
1984955,15880182043,196.0,126.0,-35.0,0,0.446,768.0,78.1,1
1984956,15880190047,246.0,155.0,-16.0,0,0.455,768.0,78.1,1
1984957,15880198043,291.0,188.0,7.0,0,0.489,768.0,78.1,1
1984958,15880206043,341.0,225.0,34.0,0,0.538,768.0,78.1,1
1984959,15880214043,393.0,266.0,64.0,0,0.584,768.0,78.1,1
1984960,15880222047,438.0,307.0,97.0,0,0.633,768.0,78.1,1
1984961,15880230044,485.0,350.0,133.0,0,0.683,768.0,78.1,1
1984962,15880238045,521.0,392.0,170.0,0,0.726,768.0,78.1,1
1984963,15880246043,559.0,432.0,207.0,0,0.762,768.0,78.1,1
1984964,15880254046,587.0,470.0,244.0,0,0.794,768.0,78.1,1
1984965,15880262043,603.0,502.0,279.0,0,0.814,768.0,78.1,1
1984966,15880270045,617.0,530.0,311.0,0,0.823,768.0,78.1,1
1984967,15880278043,624.0,553.0,339.0,0,0.821,768.0,78.1,1
1984968,15880286043,623.0,570.0,364.0,0,0.817,768.0,78.1,1
1984969,15880294043,620.0,582.0,384.0,0,0.795,768.0,78.1,1
1984970,15880302045,604.0,587.0,399.0,0,0.767,768.0,78.1,1
1984971,15880310047,589.0,588.0,409.0,0,0.735,768.0,78.1,1
1984972,15880318044,564.0,582.0,414.0,0,0.701,768.0,78.1,1
1984973,15880326043,540.0,572.0,413.0,1,0.673,768.0,78.1,1
1984974,15880334044,515.0,558.0,409.0,0,0.688,768.0,78.1,1
1984975,15880342046,483.0,540.0,399.0,0,0.723,768.0,78.1,1
1984976,15880350047,448.0,518.0,385.0,0,0.742,768.0,78.1,1
1984977,15880358046,410.0,491.0,368.0,0,0.751,768.0,78.1,1
1984978,15880366043,372.0,463.0,346.0,0,0.767,768.0,78.1,1
1984979,15880374046,329.0,430.0,321.0,0,0.765,768.0,78.1,1
1984980,15880382046,291.0,396.0,293.0,0,0.758,768.0,78.1,1
1984981,15880390043,253.0,362.0,262.0,0,0.743,768.0,78.1,1
1984982,15880398043,212.0,325.0,230.0,0,0.716,768.0,78.1,1
1984983,15880406044,180.0,290.0,197.0,0,0.686,768.0,78.1,1
1984984,15880414043,150.0,256.0,163.0,0,0.653,768.0,78.1,1
1984985,15880422044,116.0,222.0,129.0,0,0.616,768.0,78.1,1
1984986,15880430043,97.0,192.0,96.0,0,0.576,768.0,78.1,1
1984987,15880438045,74.0,163.0,65.0,0,0.536,768.0,78.1,1
1984988,15880446043,57.0,138.0,35.0,0,0.503,768.0,78.1,1
1984989,15880454047,36.0,113.0,7.0,0,0.5,768.0,78.1,1
1984990,15880462047,23.0,91.0,-20.0,0,0.521,768.0,78.1,1
1984991,15880470045,20.0,74.0,-43.0,0,0.522,768.0,78.1,1
1984992,15880478043,11.0,59.0,-64.0,0,0.532,768.0,78.1,1
1984993,15880486043,11.0,47.0,-82.0,0,0.532,768.0,78.1,1
1984994,15880494044,5.0,37.0,-98.0,0,0.535,768.0,78.1,1
1984995,15880502043,0.0,28.0,-111.0,0,0.529,768.0,78.1,3
1984996,15880510043,0.0,21.0,-122.0,0,0.526,768.0,78.1,3
1984997,15880518046,0.0,16.0,-131.0,0,0.521,768.0,78.1,3
1984998,15880526043,0.0,12.0,-139.0,0,0.522,768.0,78.1,3
1984999,15880534046,0.0,9.0,-144.0,0,0.506,768.0,78.1,3
1985000,15880542043,0.0,7.0,-149.0,0,0.51,768.0,78.1,3
1985001,15880550043,0.0,5.0,-152.0,0,0.499,768.0,78.1,3
1985002,15880558045,0.0,4.0,-155.0,0,0.502,768.0,78.1,3
1985003,15880566043,0.0,3.0,-156.0,0,0.489,768.0,78.1,3
1985004,15880574043,0.0,2.0,-158.0,0,0.496,768.0,78.1,3
1985005,15880582043,0.0,2.0,-158.0,1,0.483,768.0,78.1,3
1985006,15880590043,0.0,1.0,-159.0,0,0.489,768.0,78.1,3
1985007,15880598043,0.0,1.0,-159.0,1,0.482,768.0,78.1,3
1985008,15880606047,0.0,1.0,-158.0,0,0.486,768.0,78.1,3
1985009,15880614043,0.0,1.0,-158.0,1,0.479,771.2,78.1,3
1985010,15880622043,0.0,0.0,-157.0,0,0.483,771.2,78.1,3
1985011,15880630046,0.0,0.0,-157.0,1,0.476,771.2,78.1,3
1985012,15880638046,0.0,0.0,-156.0,0,0.48,771.2,78.1,3
1985013,15880646045,0.0,0.0,-155.0,0,0.478,771.2,78.1,3
1985014,15880654046,0.0,0.0,-154.0,0,0.475,771.2,78.1,3
1985015,15880662043,0.0,0.0,-153.0,0,0.473,771.2,78.1,3
1985016,15880670045,0.0,0.0,-153.0,1,0.466,771.2,78.1,3
1985017,15880678043,0.0,0.0,-152.0,0,0.471,771.2,78.1,3
1985018,15880686044,0.0,0.0,-151.0,0,0.469,771.2,78.1,3
1985019,15880694047,0.0,0.0,-150.0,0,0.467,771.2,78.1,3
1985020,15880702043,0.0,0.0,-149.0,0,0.465,771.2,78.1,3
1985021,15880710046,0.0,0.0,-148.0,0,0.464,771.2,78.1,3
1985022,15880718043,0.0,0.0,-147.0,0,0.462,771.2,78.1,3
1985023,15880726047,0.0,0.0,-146.0,0,0.461,771.2,78.1,3
1985024,15880734045,0.0,0.0,-145.0,0,0.46,771.2,78.1,3
1985025,15880742045,0.0,0.0,-144.0,0,0.458,771.2,78.1,3
1985026,15880750043,0.0,0.0,-143.0,0,0.457,771.2,78.1,3
1985027,15880758046,0.0,0.0,-142.0,0,0.456,771.2,78.1,3
1985028,15880766043,0.0,0.0,-141.0,0,0.455,771.2,78.1,3
1985029,15880774043,0.0,0.0,-140.0,0,0.453,771.2,78.1,3
1985030,15880782043,0.0,0.0,-139.0,0,0.452,771.2,78.1,3
1985031,15880790044,0.0,0.0,-138.0,0,0.451,771.2,78.1,3
1985032,15880798043,1.0,0.0,-137.0,0,0.45,771.2,78.1,1
1985033,15880806045,10.0,3.0,-136.0,0,0.449,771.2,78.1,1
1985034,15880814043,12.0,5.0,-134.0,0,0.454,771.2,78.1,1
1985035,15880822046,16.0,8.0,-131.0,0,0.457,771.2,78.1,1
1985036,15880830043,24.0,12.0,-128.0,0,0.454,771.2,78.1,1
1985037,15880838043,27.0,15.0,-125.0,0,0.451,771.2,78.1,1
1985038,15880846046,30.0,19.0,-121.0,0,0.454,771.2,78.1,1
1985039,15880854043,34.0,23.0,-117.0,0,0.449,771.2,78.1,1
1985040,15880862043,36.0,26.0,-113.0,0,0.445,771.2,78.1,1
1985041,15880870044,44.0,30.0,-109.0,0,0.441,771.2,78.1,1
1985042,15880878043,39.0,32.0,-105.0,0,0.437,771.2,78.1,1
1985043,15880886043,48.0,36.0,-101.0,0,0.432,771.2,78.1,1
1985044,15880894047,45.0,38.0,-97.0,0,0.428,771.2,78.1,1
1985045,15880902043,50.0,41.0,-94.0,0,0.418,771.2,78.1,1
1985046,15880910043,55.0,44.0,-90.0,0,0.421,771.2,78.1,1
1985047,15880918045,56.0,47.0,-86.0,0,0.417,771.2,78.1,1
1985048,15880926043,69.0,53.0,-82.0,0,0.413,771.2,78.1,1
1985049,15880934044,82.0,60.0,-77.0,0,0.414,771.2,78.1,1
1985050,15880942043,94.0,68.0,-71.0,0,0.415,771.2,78.1,1
1985051,15880950044,113.0,79.0,-63.0,0,0.422,771.2,78.1,1
1985052,15880958044,148.0,96.0,-53.0,0,0.426,771.2,78.1,1
1985053,15880966043,190.0,119.0,-39.0,0,0.441,771.2,78.1,1
1985054,15880974043,229.0,145.0,-22.0,0,0.445,771.2,78.1,1
1985055,15880982044,270.0,176.0,-1.0,0,0.465,771.2,78.1,1
1985056,15880990044,327.0,212.0,25.0,0,0.519,771.2,78.1,1
1985057,15880998043,370.0,250.0,54.0,0,0.564,771.2,78.1,1
1985058,15881006046,417.0,291.0,85.0,0,0.605,771.2,78.1,1
1985059,15881014045,463.0,333.0,120.0,0,0.659,771.2,78.1,1
1985060,15881022043,498.0,373.0,155.0,0,0.696,771.2,78.1,1
1985061,15881030046,537.0,413.0,191.0,0,0.736,771.2,78.1,1
1985062,15881038043,568.0,450.0,227.0,0,0.769,771.2,78.1,1
1985063,15881046044,588.0,484.0,262.0,0,0.794,771.2,78.1,1
1985064,15881054046,601.0,512.0,294.0,0,0.805,771.2,78.1,1
1985065,15881062043,608.0,535.0,323.0,0,0.809,771.2,78.1,1
1985066,15881070043,612.0,554.0,348.0,0,0.802,771.2,78.1,1
1985067,15881078047,605.0,566.0,369.0,0,0.789,771.2,78.1,1
1985068,15881086045,596.0,573.0,385.0,0,0.763,771.2,78.1,1
1985069,15881094046,580.0,575.0,396.0,0,0.732,771.2,78.1,1
1985070,15881102045,558.0,571.0,402.0,0,0.699,771.2,78.1,1
1985071,15881110047,543.0,564.0,403.0,0,0.665,771.2,78.1,1
1985072,15881118047,511.0,551.0,400.0,1,0.675,771.2,78.1,1
1985073,15881126047,488.0,536.0,392.0,0,0.702,771.2,78.1,1
1985074,15881134043,456.0,517.0,381.0,0,0.716,771.2,78.1,1
1985075,15881142045,421.0,493.0,365.0,0,0.739,771.2,78.1,1
1985076,15881150043,383.0,467.0,346.0,0,0.744,771.2,78.1,1
1985077,15881158043,349.0,438.0,324.0,0,0.746,771.2,78.1,1
1985078,15881166043,312.0,408.0,298.0,0,0.747,771.2,78.1,1
1985079,15881174047,275.0,375.0,271.0,0,0.728,771.2,78.1,1
1985080,15881182043,232.0,341.0,241.0,0,0.714,771.2,78.1,1
1985081,15881190045,204.0,308.0,210.0,0,0.687,771.2,78.1,1
1985082,15881198046,164.0,273.0,177.0,0,0.661,771.2,78.1,1
1985083,15881206045,140.0,241.0,145.0,0,0.622,771.2,78.1,1
1985084,15881214045,113.0,210.0,113.0,0,0.589,771.2,78.1,1
1985085,15881222047,87.0,180.0,82.0,0,0.553,771.2,78.1,1
1985086,15881230043,68.0,153.0,52.0,0,0.52,771.2,78.1,1
1985087,15881238044,46.0,127.0,23.0,0,0.49,771.2,78.1,1
1985088,15881246046,33.0,104.0,-4.0,0,0.504,771.2,78.1,1
1985089,15881254043,27.0,85.0,-29.0,0,0.518,771.2,78.1,1
1985090,15881262046,20.0,70.0,-50.0,0,0.515,771.2,78.1,1
1985091,15881270046,14.0,56.0,-70.0,0,0.529,771.2,78.1,1
1985092,15881278046,2.0,43.0,-87.0,0,0.528,771.2,78.1,1
1985093,15881286046,5.0,34.0,-102.0,0,0.53,771.2,78.1,1
1985094,15881294043,2.0,26.0,-114.0,0,0.521,771.2,78.1,1
1985095,15881302043,0.0,20.0,-124.0,0,0.517,771.2,78.1,3
1985096,15881310045,0.0,15.0,-133.0,0,0.519,771.2,78.1,3
1985097,15881318043,0.0,11.0,-140.0,0,0.512,771.2,78.1,3
1985098,15881326044,0.0,9.0,-145.0,0,0.503,771.2,78.1,3
1985099,15881334043,0.0,7.0,-149.0,0,0.5,771.2,78.1,3
1985100,15881342046,0.0,5.0,-152.0,0,0.495,771.2,78.1,3
1985101,15881350043,0.0,4.0,-154.0,0,0.49,771.2,78.1,3
1985102,15881358043,0.0,3.0,-156.0,0,0.491,771.2,78.1,3
1985103,15881366043,0.0,2.0,-157.0,0,0.485,771.2,78.1,3
1985104,15881374046,0.0,2.0,-157.0,1,0.478,771.2,78.1,3
1985105,15881382043,0.0,1.0,-158.0,0,0.484,771.2,78.1,3
1985106,15881390043,0.0,1.0,-158.0,1,0.477,777.6,77.3,3
1985107,15881398044,0.0,1.0,-157.0,0,0.481,777.6,77.3,3
1985108,15881406043,0.0,1.0,-157.0,1,0.474,777.6,77.3,3
1985109,15881414043,0.0,0.0,-156.0,0,0.478,777.6,77.3,3
1985110,15881422043,0.0,0.0,-156.0,1,0.471,777.6,77.3,3
1985111,15881430043,0.0,0.0,-155.0,0,0.475,777.6,77.3,3
1985112,15881438043,0.0,0.0,-154.0,0,0.473,777.6,77.3,3
1985113,15881446047,0.0,0.0,-153.0,0,0.471,777.6,77.3,3
1985114,15881454043,0.0,0.0,-152.0,0,0.469,777.6,77.3,3
1985115,15881462047,0.0,0.0,-151.0,0,0.467,777.6,77.3,3
1985116,15881470043,0.0,0.0,-150.0,0,0.465,777.6,77.3,3
1985117,15881478045,0.0,0.0,-150.0,1,0.458,777.6,77.3,3
1985118,15881486043,0.0,0.0,-149.0,0,0.463,777.6,77.3,3
1985119,15881494045,0.0,0.0,-148.0,0,0.462,777.6,77.3,3
1985120,15881502045,0.0,0.0,-147.0,0,0.46,777.6,77.3,3
1985121,15881510043,0.0,0.0,-146.0,0,0.459,777.6,77.3,3
1985122,15881518044,0.0,0.0,-145.0,0,0.458,777.6,77.3,3
1985123,15881526045,0.0,0.0,-144.0,0,0.457,777.6,77.3,3
1985124,15881534046,0.0,0.0,-143.0,0,0.456,777.6,77.3,3
1985125,15881542043,0.0,0.0,-142.0,0,0.454,777.6,77.3,3
1985126,15881550044,0.0,0.0,-141.0,0,0.453,777.6,77.3,3
1985127,15881558043,0.0,0.0,-140.0,0,0.452,777.6,77.3,3
1985128,15881566043,0.0,0.0,-139.0,0,0.451,777.6,77.3,3
1985129,15881574043,0.0,0.0,-138.0,0,0.45,777.6,77.3,3
1985130,15881582044,7.0,2.0,-137.0,0,0.449,777.6,77.3,1
1985131,15881590043,12.0,4.0,-135.0,0,0.454,777.6,77.3,1
1985132,15881598043,17.0,7.0,-132.0,0,0.458,777.6,77.3,1
1985133,15881606044,20.0,10.0,-129.0,0,0.454,777.6,77.3,1
1985134,15881614043,29.0,15.0,-126.0,0,0.451,777.6,77.3,1
1985135,15881622043,35.0,20.0,-122.0,0,0.454,777.6,77.3,1
1985136,15881630043,39.0,24.0,-117.0,0,0.456,777.6,77.3,1
1985137,15881638043,38.0,28.0,-113.0,0,0.444,777.6,77.3,1
1985138,15881646043,47.0,32.0,-108.0,0,0.446,777.6,77.3,1
1985139,15881654043,43.0,35.0,-104.0,0,0.435,777.6,77.3,1
1985140,15881662043,53.0,39.0,-99.0,0,0.436,777.6,77.3,1
1985141,15881670044,60.0,44.0,-95.0,0,0.425,777.6,77.3,1
1985142,15881678047,61.0,48.0,-90.0,0,0.427,777.6,77.3,1
1985143,15881686043,64.0,52.0,-85.0,0,0.422,777.6,77.3,1
1985144,15881694044,69.0,56.0,-81.0,0,0.41,777.6,77.3,1
1985145,15881702044,72.0,60.0,-76.0,0,0.412,777.6,77.3,1
1985146,15881710046,77.0,64.0,-72.0,0,0.401,777.6,77.3,1
1985147,15881718043,77.0,67.0,-68.0,0,0.397,777.6,77.3,1
1985148,15881726044,78.0,70.0,-64.0,0,0.393,777.6,77.3,1
1985149,15881734043,80.0,72.0,-60.0,0,0.389,777.6,77.3,1
1985150,15881742046,87.0,76.0,-57.0,0,0.379,777.6,77.3,1
1985151,15881750043,96.0,81.0,-53.0,0,0.382,777.6,77.3,1
1985152,15881758047,108.0,87.0,-48.0,0,0.385,777.6,77.3,1
1985153,15881766043,125.0,96.0,-42.0,0,0.386,777.6,77.3,1
1985154,15881774043,154.0,110.0,-33.0,0,0.399,777.6,77.3,1
1985155,15881782045,180.0,127.0,-22.0,0,0.403,777.6,77.3,1
1985156,15881790047,228.0,152.0,-8.0,0,0.412,777.6,77.3,1
1985157,15881798043,271.0,181.0,11.0,0,0.465,777.6,77.3,1
1985158,15881806043,317.0,214.0,33.0,0,0.506,777.6,77.3,1
1985159,15881814043,368.0,251.0,60.0,0,0.562,777.6,77.3,1
1985160,15881822043,414.0,291.0,90.0,0,0.608,777.6,77.3,1
1985161,15881830043,461.0,332.0,123.0,0,0.657,777.6,77.3,1
1985162,15881838043,507.0,374.0,158.0,0,0.702,777.6,77.3,1
1985163,15881846043,547.0,416.0,194.0,0,0.741,777.6,77.3,1
1985164,15881854046,579.0,456.0,231.0,0,0.779,777.6,77.3,1
1985165,15881862043,603.0,491.0,267.0,0,0.804,777.6,77.3,1
1985166,15881870043,624.0,524.0,301.0,0,0.821,777.6,77.3,1
1985167,15881878043,638.0,551.0,332.0,0,0.827,777.6,77.3,1
1985168,15881886046,639.0,573.0,360.0,0,0.827,777.6,77.3,1
1985169,15881894044,647.0,591.0,384.0,0,0.815,777.6,77.3,1
1985170,15881902047,635.0,601.0,403.0,0,0.792,777.6,77.3,1
1985171,15881910047,624.0,607.0,418.0,0,0.77,777.6,77.3,1
1985172,15881918043,604.0,606.0,427.0,0,0.731,777.6,77.3,1
1985173,15881926047,585.0,601.0,432.0,0,0.704,777.6,77.3,1
1985174,15881934043,556.0,590.0,431.0,1,0.676,777.6,77.3,1
1985175,15881942043,528.0,575.0,425.0,0,0.704,777.6,77.3,1
1985176,15881950043,499.0,557.0,415.0,0,0.726,777.6,77.3,1
1985177,15881958043,460.0,533.0,401.0,0,0.745,777.6,77.3,1
1985178,15881966043,429.0,508.0,382.0,0,0.766,777.6,77.3,1
1985179,15881974047,383.0,478.0,360.0,0,0.77,777.6,77.3,1
1985180,15881982046,344.0,445.0,334.0,0,0.774,777.6,77.3,1
1985181,15881990047,311.0,413.0,306.0,0,0.762,777.6,77.3,1
1985182,15881998043,268.0,378.0,276.0,0,0.746,777.6,77.3,1
1985183,15882006043,232.0,342.0,244.0,0,0.726,777.6,77.3,1
1985184,15882014043,197.0,307.0,210.0,0,0.701,777.6,77.3,1
1985185,15882022043,159.0,271.0,176.0,0,0.667,777.6,77.3,1
1985186,15882030043,134.0,238.0,142.0,0,0.633,777.6,77.3,1
1985187,15882038043,103.0,205.0,108.0,0,0.598,777.6,77.3,1
1985188,15882046043,80.0,175.0,76.0,0,0.559,777.6,77.3,1
1985189,15882054046,52.0,145.0,44.0,0,0.529,777.6,77.3,1
1985190,15882062043,40.0,120.0,14.0,0,0.505,777.6,77.3,1
1985191,15882070043,23.0,96.0,-14.0,0,0.52,777.6,77.3,1
1985192,15882078043,8.0,75.0,-40.0,0,0.534,777.6,77.3,1
1985193,15882086043,1.0,57.0,-63.0,0,0.54,777.6,77.3,1
1985194,15882094043,0.0,43.0,-83.0,0,0.542,777.6,77.3,3
1985195,15882102044,0.0,33.0,-101.0,0,0.547,777.6,77.3,3
1985196,15882110045,0.0,25.0,-115.0,0,0.535,777.6,77.3,3
1985197,15882118045,0.0,19.0,-127.0,0,0.533,777.6,77.3,3
1985198,15882126043,0.0,14.0,-136.0,0,0.521,777.6,77.3,3
1985199,15882134043,0.0,11.0,-143.0,0,0.514,777.6,77.3,3
1985200,15882142043,0.0,8.0,-149.0,0,0.513,777.6,77.3,3
1985201,15882150043,0.0,6.0,-153.0,0,0.503,777.6,77.3,3
1985202,15882158043,0.0,5.0,-156.0,0,0.499,777.6,77.3,3
1985203,15882166043,0.0,4.0,-159.0,0,0.501,777.6,77.3,3
1985204,15882174046,0.0,3.0,-160.0,0,0.488,782.4,77.3,3
1985205,15882182046,0.0,2.0,-161.0,0,0.488,788.8,76.5,3
1985206,15882190043,0.0,2.0,-162.0,0,0.488,788.8,76.5,3
1985207,15882198043,0.0,1.0,-162.0,1,0.481,788.8,76.5,3
1985208,15882206047,0.0,1.0,-162.0,0,0.48,788.8,76.5,3
1985209,15882214047,0.0,1.0,-162.0,0,0.479,788.8,76.5,3
1985210,15882222043,0.0,1.0,-161.0,0,0.484,788.8,76.5,3
1985211,15882230045,0.0,0.0,-160.0,0,0.482,788.8,76.5,3
1985212,15882238046,0.0,0.0,-160.0,1,0.474,788.8,76.5,3
1985213,15882246043,0.0,0.0,-159.0,0,0.479,788.8,76.5,3
1985214,15882254043,0.0,0.0,-158.0,0,0.478,788.8,76.5,3
1985215,15882262045,0.0,0.0,-157.0,0,0.476,788.8,76.5,3
1985216,15882270043,0.0,0.0,-156.0,0,0.475,788.8,76.5,3
1985217,15882278045,0.0,0.0,-155.0,0,0.473,788.8,76.5,3
1985218,15882286043,0.0,0.0,-154.0,0,0.472,788.8,76.5,3
1985219,15882294046,0.0,0.0,-153.0,0,0.471,788.8,76.5,3
1985220,15882302043,0.0,0.0,-152.0,0,0.47,788.8,76.5,3
1985221,15882310047,0.0,0.0,-151.0,0,0.469,788.8,76.5,3
1985222,15882318043,0.0,0.0,-151.0,1,0.462,788.8,76.5,3
1985223,15882326044,0.0,0.0,-150.0,0,0.467,788.8,76.5,3
1985224,15882334043,0.0,0.0,-149.0,0,0.466,788.8,76.5,3
1985225,15882342045,0.0,0.0,-148.0,0,0.465,788.8,76.5,3
1985226,15882350043,0.0,0.0,-147.0,0,0.464,788.8,76.5,3
1985227,15882358043,0.0,0.0,-146.0,0,0.463,788.8,76.5,3
1985228,15882366045,0.0,0.0,-145.0,0,0.462,788.8,76.5,3
1985229,15882374045,0.0,0.0,-144.0,0,0.461,788.8,76.5,3
1985230,15882382043,0.0,0.0,-143.0,0,0.46,788.8,76.5,3
1985231,15882390046,0.0,0.0,-142.0,0,0.459,788.8,76.5,3
1985232,15882398043,0.0,0.0,-141.0,0,0.458,788.8,76.5,3
1985233,15882406043,0.0,0.0,-140.0,0,0.457,788.8,76.5,3
1985234,15882414044,0.0,0.0,-139.0,0,0.456,788.8,76.5,3
1985235,15882422046,1.0,0.0,-138.0,0,0.455,788.8,76.5,1
1985236,15882430043,8.0,2.0,-137.0,0,0.454,788.8,76.5,1
1985237,15882438046,12.0,5.0,-135.0,0,0.459,788.8,76.5,1
1985238,15882446043,20.0,8.0,-132.0,0,0.462,788.8,76.5,1
1985239,15882454045,24.0,12.0,-129.0,0,0.459,788.8,76.5,1
1985240,15882462043,26.0,15.0,-125.0,0,0.462,788.8,76.5,1
1985241,15882470043,33.0,20.0,-121.0,0,0.457,788.8,76.5,1
1985242,15882478047,36.0,24.0,-117.0,0,0.453,788.8,76.5,1
1985243,15882486043,44.0,29.0,-112.0,0,0.455,790.4,76.5,1
1985244,15882494043,48.0,33.0,-108.0,0,0.443,790.4,76.5,1
1985245,15882502046,51.0,38.0,-103.0,0,0.445,790.4,76.5,1
1985246,15882510044,55.0,42.0,-98.0,0,0.44,790.4,76.5,1
1985247,15882518044,57.0,45.0,-93.0,0,0.435,790.4,76.5,1
1985248,15882526043,67.0,51.0,-88.0,0,0.429,790.4,76.5,1
1985249,15882534044,67.0,55.0,-84.0,0,0.418,790.4,76.5,1
1985250,15882542043,71.0,59.0,-79.0,0,0.42,790.4,76.5,1
1985251,15882550044,72.0,62.0,-74.0,0,0.415,790.4,76.5,1
1985252,15882558043,68.0,63.0,-71.0,0,0.398,790.4,76.5,1
1985253,15882566045,76.0,66.0,-67.0,0,0.401,790.4,76.5,1
1985254,15882574043,74.0,68.0,-64.0,0,0.391,790.4,76.5,1
1985255,15882582045,76.0,70.0,-61.0,0,0.388,790.4,76.5,1
1985256,15882590043,81.0,73.0,-58.0,0,0.385,790.4,76.5,1
1985257,15882598044,78.0,74.0,-56.0,0,0.376,790.4,76.5,1
1985258,15882606043,88.0,77.0,-53.0,0,0.38,790.4,76.5,1
1985259,15882614044,100.0,83.0,-49.0,0,0.383,790.4,76.5,1
1985260,15882622047,116.0,91.0,-44.0,0,0.385,790.4,76.5,1
1985261,15882630043,145.0,104.0,-37.0,0,0.393,790.4,76.5,1
1985262,15882638043,171.0,120.0,-27.0,0,0.405,790.4,76.5,1
1985263,15882646043,212.0,143.0,-13.0,0,0.42,790.4,76.5,1
1985264,15882654043,258.0,171.0,4.0,0,0.44,790.4,76.5,1
1985265,15882662045,308.0,204.0,26.0,0,0.494,790.4,76.5,1
1985266,15882670044,360.0,242.0,52.0,0,0.543,790.4,76.5,1
1985267,15882678043,405.0,281.0,82.0,0,0.594,790.4,76.5,1
1985268,15882686043,455.0,323.0,115.0,0,0.642,790.4,76.5,1
1985269,15882694043,500.0,366.0,150.0,0,0.687,790.4,76.5,1
1985270,15882702043,533.0,407.0,186.0,0,0.728,790.4,76.5,1
1985271,15882710047,572.0,447.0,223.0,0,0.766,790.4,76.5,1
1985272,15882718043,599.0,484.0,259.0,0,0.793,790.4,76.5,1
1985273,15882726046,621.0,517.0,294.0,0,0.815,790.4,76.5,1
1985274,15882734043,637.0,546.0,326.0,0,0.823,790.4,76.5,1
1985275,15882742047,639.0,569.0,355.0,0,0.825,790.4,76.5,1
1985276,15882750044,647.0,588.0,380.0,0,0.816,790.4,76.5,1
1985277,15882758043,636.0,599.0,400.0,0,0.795,790.4,76.5,1
1985278,15882766046,625.0,606.0,416.0,0,0.774,790.4,76.5,1
1985279,15882774044,609.0,606.0,426.0,0,0.736,790.4,76.5,1
1985280,15882782046,590.0,602.0,431.0,0,0.702,790.4,76.5,1
1985281,15882790044,564.0,593.0,432.0,0,0.675,790.4,76.5,1
1985282,15882798043,537.0,580.0,428.0,1,0.691,792.0,76.5,1
1985283,15882806043,509.0,562.0,419.0,0,0.721,792.0,76.5,1
1985284,15882814043,472.0,540.0,406.0,0,0.743,792.0,76.5,1
1985285,15882822047,434.0,515.0,388.0,0,0.768,792.0,76.5,1
1985286,15882830043,404.0,488.0,367.0,0,0.776,792.0,76.5,1
1985287,15882838043,360.0,457.0,343.0,0,0.779,792.0,76.5,1
1985288,15882846047,321.0,424.0,316.0,0,0.776,792.0,76.5,1
1985289,15882854043,284.0,390.0,286.0,0,0.768,792.0,76.5,1
1985290,15882862043,242.0,354.0,255.0,0,0.747,792.0,76.5,1
1985291,15882870043,207.0,318.0,222.0,0,0.725,792.0,76.5,1
1985292,15882878043,174.0,283.0,188.0,0,0.696,792.0,76.5,1
1985293,15882886047,145.0,250.0,154.0,0,0.662,792.0,76.5,1
1985294,15882894046,113.0,217.0,120.0,0,0.626,792.0,76.5,1
1985295,15882902043,92.0,186.0,87.0,0,0.588,792.0,76.5,1
1985296,15882910046,72.0,159.0,56.0,0,0.549,792.0,76.5,1
1985297,15882918047,49.0,132.0,26.0,0,0.516,792.0,76.5,1
1985298,15882926047,43.0,111.0,-1.0,0,0.494,792.0,76.5,1
1985299,15882934045,28.0,91.0,-26.0,0,0.507,792.0,76.5,1
1985300,15882942047,22.0,74.0,-49.0,0,0.518,792.0,76.5,1
1985301,15882950044,13.0,59.0,-69.0,0,0.521,792.0,76.5,1
1985302,15882958047,9.0,47.0,-86.0,0,0.519,792.0,76.5,1
1985303,15882966045,10.0,38.0,-101.0,0,0.522,792.0,76.5,1
1985304,15882974043,0.0,29.0,-114.0,0,0.522,792.0,76.5,3
1985305,15882982043,0.0,22.0,-125.0,0,0.52,795.2,76.1,3
1985306,15882990044,0.0,17.0,-134.0,0,0.515,795.2,76.1,3
1985307,15882998046,0.0,13.0,-141.0,0,0.508,795.2,76.1,3
1985308,15883006045,0.0,9.0,-147.0,0,0.507,795.2,76.1,3
1985309,15883014046,0.0,7.0,-152.0,0,0.505,795.2,76.1,3
1985310,15883022046,0.0,5.0,-155.0,0,0.494,795.2,76.1,3
1985311,15883030043,0.0,4.0,-157.0,0,0.488,795.2,76.1,3
1985312,15883038046,0.0,3.0,-159.0,0,0.49,795.2,76.1,3
1985313,15883046044,0.0,2.0,-160.0,0,0.484,795.2,76.1,3
1985314,15883054043,0.0,2.0,-161.0,0,0.485,795.2,76.1,3
1985315,15883062045,0.0,1.0,-161.0,1,0.478,795.2,76.1,3
1985316,15883070047,0.0,1.0,-161.0,0,0.478,795.2,76.1,3
1985317,15883078047,0.0,1.0,-161.0,0,0.477,795.2,76.1,3
1985318,15883086043,0.0,1.0,-161.0,0,0.477,795.2,76.1,3
1985319,15883094044,0.0,0.0,-160.0,0,0.483,795.2,76.1,3
1985320,15883102046,0.0,0.0,-159.0,0,0.481,795.2,76.1,3
1985321,15883110043,0.0,0.0,-159.0,1,0.475,801.6,76.1,3
1985322,15883118043,0.0,0.0,-158.0,0,0.48,801.6,76.1,3
1985323,15883126043,0.0,0.0,-157.0,0,0.479,801.6,76.1,3
1985324,15883134047,0.0,0.0,-156.0,0,0.478,801.6,76.1,3
1985325,15883142043,0.0,0.0,-155.0,0,0.477,801.6,76.1,3
1985326,15883150047,0.0,0.0,-154.0,0,0.476,801.6,76.1,3
1985327,15883158043,0.0,0.0,-153.0,0,0.475,801.6,76.1,3
1985328,15883166043,0.0,0.0,-152.0,0,0.474,801.6,76.1,3
1985329,15883174047,0.0,0.0,-151.0,0,0.473,801.6,76.1,3
1985330,15883182043,0.0,0.0,-150.0,0,0.472,801.6,76.1,3
1985331,15883190044,0.0,0.0,-149.0,0,0.471,801.6,76.1,3
1985332,15883198046,0.0,0.0,-148.0,0,0.47,801.6,76.1,3
1985333,15883206043,0.0,0.0,-147.0,0,0.469,801.6,76.1,3
1985334,15883214047,0.0,0.0,-146.0,0,0.468,801.6,76.1,3
1985335,15883222044,0.0,0.0,-145.0,0,0.467,801.6,76.1,3
1985336,15883230046,0.0,0.0,-144.0,0,0.466,801.6,76.1,3
1985337,15883238043,0.0,0.0,-144.0,1,0.459,801.6,76.1,3
1985338,15883246043,0.0,0.0,-143.0,0,0.465,801.6,76.1,3
1985339,15883254043,0.0,0.0,-142.0,0,0.463,801.6,76.1,3
1985340,15883262047,0.0,0.0,-141.0,0,0.462,801.6,76.1,3
1985341,15883270044,0.0,0.0,-140.0,0,0.461,801.6,76.1,3
1985342,15883278046,0.0,0.0,-139.0,0,0.46,801.6,76.1,3
1985343,15883286043,11.0,3.0,-137.0,0,0.465,801.6,76.1,1
1985344,15883294046,12.0,5.0,-135.0,0,0.463,801.6,76.1,1
1985345,15883302043,22.0,9.0,-132.0,0,0.466,801.6,76.1,1
1985346,15883310045,25.0,13.0,-129.0,0,0.463,801.6,76.1,1
1985347,15883318044,29.0,17.0,-125.0,0,0.466,801.6,76.1,1
1985348,15883326043,36.0,21.0,-121.0,0,0.461,801.6,76.1,1
1985349,15883334043,44.0,27.0,-116.0,0,0.463,801.6,76.1,1
1985350,15883342043,47.0,32.0,-111.0,0,0.458,801.6,76.1,1
1985351,15883350043,51.0,36.0,-106.0,0,0.452,801.6,76.1,1
1985352,15883358043,48.0,39.0,-101.0,0,0.447,801.6,76.1,1
1985353,15883366043,60.0,44.0,-96.0,0,0.442,801.6,76.1,1
1985354,15883374043,61.0,48.0,-92.0,0,0.43,801.6,76.1,1
1985355,15883382043,68.0,53.0,-87.0,0,0.432,801.6,76.1,1
1985356,15883390043,69.0,57.0,-82.0,0,0.427,801.6,76.1,1
1985357,15883398043,69.0,60.0,-78.0,0,0.416,801.6,76.1,1
1985358,15883406045,74.0,63.0,-73.0,0,0.418,801.6,76.1,1
1985359,15883414043,69.0,65.0,-70.0,0,0.4,801.6,76.1,1
1985360,15883422043,74.0,67.0,-67.0,0,0.397,801.6,76.1,1
1985361,15883430043,78.0,70.0,-63.0,0,0.4,801.6,76.1,1
1985362,15883438043,79.0,72.0,-60.0,0,0.39,801.6,76.1,1
1985363,15883446043,88.0,76.0,-57.0,0,0.387,801.6,76.1,1
1985364,15883454044,90.0,79.0,-53.0,0,0.39,801.6,76.1,1
1985365,15883462043,110.0,87.0,-49.0,0,0.386,801.6,76.1,1
1985366,15883470043,132.0,98.0,-42.0,0,0.401,801.6,76.1,1
1985367,15883478046,153.0,111.0,-34.0,0,0.4,801.6,76.1,1
1985368,15883486043,189.0,130.0,-22.0,0,0.417,801.6,76.1,1
1985369,15883494043,228.0,154.0,-7.0,0,0.424,801.6,76.1,1
1985370,15883502044,272.0,182.0,11.0,0,0.45,801.6,76.1,1
1985371,15883510045,320.0,216.0,34.0,0,0.504,801.6,76.1,1
1985372,15883518043,367.0,252.0,61.0,0,0.554,801.6,76.1,1
1985373,15883526043,416.0,292.0,91.0,0,0.6,801.6,76.1,1
1985374,15883534043,460.0,333.0,123.0,0,0.642,801.6,76.1,1
1985375,15883542046,496.0,372.0,157.0,0,0.686,801.6,76.1,1
1985376,15883550045,536.0,412.0,192.0,0,0.726,801.6,76.1,1
1985377,15883558043,561.0,448.0,227.0,0,0.759,801.6,76.1,1
1985378,15883566043,585.0,481.0,261.0,0,0.785,801.6,76.1,1
1985379,15883574044,599.0,510.0,293.0,0,0.801,801.6,76.1,1
1985380,15883582045,609.0,534.0,321.0,0,0.802,801.6,76.1,1
1985381,15883590045,614.0,553.0,346.0,0,0.802,801.6,76.1,1
1985382,15883598047,607.0,566.0,367.0,0,0.79,801.6,76.1,1
1985383,15883606046,605.0,576.0,384.0,0,0.772,801.6,76.1,1
1985384,15883614045,588.0,579.0,396.0,0,0.742,801.6,76.1,1
1985385,15883622043,570.0,577.0,403.0,0,0.709,801.6,76.1,1
1985386,15883630046,549.0,570.0,406.0,0,0.681,801.6,76.1,1
1985387,15883638043,522.0,558.0,404.0,1,0.673,801.6,76.1,1
1985388,15883646043,494.0,543.0,397.0,0,0.705,801.6,76.1,1
1985389,15883654044,462.0,523.0,386.0,0,0.73,801.6,76.1,1
1985390,15883662043,426.0,500.0,370.0,0,0.758,801.6,76.1,1
1985391,15883670047,395.0,474.0,352.0,0,0.761,801.6,76.1,1
1985392,15883678045,348.0,444.0,329.0,0,0.779,801.6,76.1,1
1985393,15883686047,313.0,412.0,303.0,0,0.778,801.6,76.1,1
1985394,15883694043,276.0,379.0,275.0,0,0.767,801.6,76.1,1
1985395,15883702047,237.0,345.0,245.0,0,0.751,801.6,76.1,1
1985396,15883710043,204.0,310.0,213.0,0,0.73,801.6,76.1,1
1985397,15883718045,170.0,276.0,181.0,0,0.698,801.6,76.1,1
1985398,15883726043,141.0,244.0,148.0,0,0.668,801.6,76.1,1
1985399,15883734047,112.0,212.0,115.0,0,0.632,801.6,76.1,1
1985400,15883742043,86.0,181.0,83.0,0,0.594,801.6,76.1,1
1985401,15883750046,67.0,154.0,53.0,0,0.554,801.6,76.1,1
1985402,15883758045,51.0,129.0,24.0,0,0.52,801.6,76.1,1
1985403,15883766043,35.0,106.0,-3.0,0,0.494,801.6,76.1,1
1985404,15883774043,27.0,87.0,-28.0,0,0.508,801.6,76.1,1
1985405,15883782043,16.0,70.0,-50.0,0,0.513,801.6,76.1,1
1985406,15883790045,12.0,56.0,-70.0,0,0.522,804.8,75.8,1
1985407,15883798043,1.0,42.0,-87.0,0,0.521,804.8,75.8,1
1985408,15883806043,3.0,33.0,-102.0,0,0.524,804.8,75.8,1
1985409,15883814043,0.0,25.0,-115.0,0,0.524,804.8,75.8,3
1985410,15883822043,0.0,19.0,-126.0,0,0.521,804.8,75.8,3
1985411,15883830046,0.0,14.0,-134.0,0,0.508,804.8,75.8,3
1985412,15883838045,0.0,11.0,-141.0,0,0.508,804.8,75.8,3
1985413,15883846043,0.0,8.0,-146.0,0,0.499,804.8,75.8,3
1985414,15883854043,0.0,6.0,-150.0,0,0.496,804.8,75.8,3
1985415,15883862043,0.0,5.0,-153.0,0,0.492,804.8,75.8,3
1985416,15883870044,0.0,4.0,-156.0,0,0.495,804.8,75.8,3
1985417,15883878044,0.0,3.0,-157.0,0,0.482,804.8,75.8,3
1985418,15883886046,0.0,2.0,-158.0,0,0.483,804.8,75.8,3
1985419,15883894046,0.0,2.0,-159.0,0,0.484,804.8,75.8,3
1985420,15883902046,0.0,1.0,-159.0,1,0.478,804.8,75.8,3
1985421,15883910044,0.0,1.0,-159.0,0,0.478,804.8,75.8,3
1985422,15883918043,0.0,1.0,-158.0,0,0.483,804.8,75.8,3
1985423,15883926044,0.0,1.0,-158.0,1,0.477,804.8,75.8,3
1985424,15883934046,0.0,0.0,-157.0,0,0.482,804.8,75.8,3
1985425,15883942046,0.0,0.0,-157.0,1,0.475,804.8,75.8,3
1985426,15883950043,0.0,0.0,-156.0,0,0.481,804.8,75.8,3
1985427,15883958043,0.0,0.0,-155.0,0,0.48,804.8,75.8,3
1985428,15883966043,0.0,0.0,-154.0,0,0.479,804.8,75.8,3
1985429,15883974044,0.0,0.0,-153.0,0,0.478,804.8,75.8,3
1985430,15883982043,0.0,0.0,-152.0,0,0.477,804.8,75.8,3
1985431,15883990046,0.0,0.0,-151.0,0,0.476,804.8,75.8,3
1985432,15883998043,0.0,0.0,-150.0,0,0.475,804.8,75.8,3
1985433,15884006045,0.0,0.0,-149.0,0,0.474,804.8,75.8,3
1985434,15884014043,0.0,0.0,-148.0,0,0.472,804.8,75.8,3
1985435,15884022045,0.0,0.0,-147.0,0,0.471,804.8,75.8,3
1985436,15884030043,0.0,0.0,-147.0,1,0.465,804.8,75.8,3
1985437,15884038044,0.0,0.0,-146.0,0,0.47,804.8,75.8,3
1985438,15884046044,0.0,0.0,-145.0,0,0.469,801.6,75.8,3
1985439,15884054047,0.0,0.0,-144.0,0,0.468,801.6,75.8,3
1985440,15884062045,0.0,0.0,-143.0,0,0.467,801.6,75.8,3
1985441,15884070047,0.0,0.0,-142.0,0,0.466,801.6,75.8,3
1985442,15884078043,0.0,0.0,-141.0,0,0.465,801.6,75.8,3
1985443,15884086046,0.0,0.0,-140.0,0,0.464,801.6,75.8,3
1985444,15884094043,0.0,0.0,-139.0,0,0.463,801.6,75.8,3
1985445,15884102045,2.0,0.0,-138.0,0,0.462,801.6,75.8,1
1985446,15884110043,10.0,3.0,-136.0,0,0.466,801.6,75.8,1
1985447,15884118043,9.0,4.0,-134.0,0,0.464,801.6,75.8,1
1985448,15884126045,19.0,8.0,-132.0,0,0.462,801.6,75.8,1
1985449,15884134044,20.0,11.0,-129.0,0,0.466,801.6,75.8,1
1985450,15884142045,26.0,14.0,-126.0,0,0.462,801.6,75.8,1
1985451,15884150043,31.0,18.0,-122.0,0,0.465,801.6,75.8,1
1985452,15884158043,36.0,23.0,-118.0,0,0.461,801.6,75.8,1
1985453,15884166043,42.0,27.0,-113.0,0,0.462,801.6,75.8,1
1985454,15884174043,47.0,32.0,-108.0,0,0.457,801.6,75.8,1
1985455,15884182044,55.0,38.0,-103.0,0,0.451,801.6,75.8,1
1985456,15884190043,59.0,43.0,-98.0,0,0.446,801.6,75.8,1
1985457,15884198043,60.0,47.0,-93.0,0,0.441,801.6,75.8,1
1985458,15884206044,70.0,53.0,-88.0,0,0.435,801.6,75.8,1
1985459,15884214043,67.0,56.0,-83.0,0,0.43,801.6,75.8,1
1985460,15884222046,77.0,61.0,-77.0,0,0.431,801.6,75.8,1
1985461,15884230043,76.0,65.0,-73.0,0,0.412,801.6,75.8,1
1985462,15884238044,76.0,67.0,-68.0,0,0.414,801.6,75.8,1
1985463,15884246043,80.0,71.0,-64.0,0,0.403,801.6,75.8,1
1985464,15884254044,82.0,73.0,-60.0,0,0.398,801.6,75.8,1
1985465,15884262043,83.0,76.0,-57.0,0,0.388,801.6,75.8,1
1985466,15884270045,85.0,78.0,-54.0,0,0.385,801.6,75.8,1
1985467,15884278043,83.0,79.0,-51.0,0,0.382,801.6,75.8,1
1985468,15884286043,88.0,81.0,-48.0,0,0.379,801.6,75.8,1
1985469,15884294043,86.0,82.0,-46.0,0,0.37,801.6,75.8,1
1985470,15884302046,92.0,85.0,-44.0,0,0.368,801.6,75.8,1
1985471,15884310043,102.0,89.0,-41.0,0,0.372,801.6,75.8,1
1985472,15884318046,112.0,95.0,-37.0,0,0.375,801.6,75.8,1
1985473,15884326043,139.0,105.0,-31.0,0,0.383,801.6,75.8,1
1985474,15884334043,165.0,120.0,-23.0,0,0.39,801.6,75.8,1
1985475,15884342043,196.0,138.0,-12.0,0,0.401,801.6,75.8,1
1985476,15884350043,243.0,164.0,3.0,0,0.422,801.6,75.8,1
1985477,15884358043,286.0,193.0,23.0,0,0.476,801.6,75.8,1
1985478,15884366043,334.0,227.0,46.0,0,0.518,801.6,75.8,1
1985479,15884374045,383.0,265.0,73.0,0,0.568,801.6,75.8,1
1985480,15884382043,430.0,305.0,103.0,0,0.615,801.6,75.8,1
1985481,15884390043,486.0,349.0,137.0,0,0.669,801.6,75.8,1
1985482,15884398043,524.0,391.0,173.0,0,0.714,801.6,75.8,1
1985483,15884406043,561.0,433.0,210.0,0,0.755,801.6,75.8,1
1985484,15884414043,589.0,470.0,246.0,0,0.785,801.6,75.8,1
1985485,15884422043,617.0,506.0,282.0,0,0.815,801.6,75.8,1
1985486,15884430043,636.0,537.0,315.0,0,0.828,801.6,75.8,1
1985487,15884438043,639.0,562.0,345.0,0,0.834,801.6,75.8,1
1985488,15884446046,653.0,584.0,373.0,0,0.84,801.6,75.8,1
1985489,15884454043,652.0,601.0,396.0,0,0.824,801.6,75.8,1
1985490,15884462043,639.0,610.0,414.0,0,0.8,801.6,75.8,1
1985491,15884470043,627.0,614.0,427.0,0,0.769,801.6,75.8,1
1985492,15884478045,610.0,613.0,436.0,0,0.743,801.6,75.8,1
1985493,15884486045,591.0,608.0,439.0,0,0.701,801.6,75.8,1
1985494,15884494043,566.0,598.0,438.0,1,0.687,801.6,75.8,1
1985495,15884502043,534.0,582.0,432.0,0,0.719,801.6,75.8,1
1985496,15884510043,501.0,563.0,422.0,0,0.745,801.6,75.8,1
1985497,15884518043,469.0,540.0,407.0,0,0.776,801.6,75.8,1
1985498,15884526046,435.0,514.0,388.0,0,0.795,801.6,75.8,1
1985499,15884534044,396.0,486.0,366.0,0,0.803,801.6,75.8,1
1985500,15884542045,355.0,454.0,341.0,0,0.806,801.6,75.8,1
1985501,15884550047,316.0,421.0,313.0,0,0.804,801.6,75.8,1
1985502,15884558045,272.0,385.0,282.0,0,0.795,801.6,75.8,1
1985503,15884566047,239.0,349.0,250.0,0,0.773,801.6,75.8,1
1985504,15884574043,204.0,314.0,216.0,0,0.749,801.6,75.8,1
1985505,15884582044,176.0,281.0,183.0,0,0.712,801.6,75.8,1
1985506,15884590047,147.0,248.0,149.0,0,0.68,801.6,75.8,1
1985507,15884598047,116.0,216.0,116.0,0,0.64,801.6,75.8,1
1985508,15884606043,96.0,187.0,84.0,0,0.601,811.2,74.6,1
1985509,15884614043,73.0,159.0,54.0,0,0.561,811.2,74.6,1
1985510,15884622043,59.0,135.0,25.0,0,0.527,811.2,74.6,1
1985511,15884630043,48.0,114.0,-2.0,0,0.496,811.2,74.6,1
1985512,15884638045,36.0,95.0,-26.0,0,0.503,811.2,74.6,1
1985513,15884646043,31.0,80.0,-47.0,0,0.507,811.2,74.6,1
1985514,15884654043,23.0,66.0,-66.0,0,0.514,811.2,74.6,1
1985515,15884662043,17.0,54.0,-83.0,0,0.519,811.2,74.6,1
1985516,15884670043,12.0,44.0,-98.0,0,0.522,812.8,74.6,1
1985517,15884678043,6.0,35.0,-110.0,0,0.513,812.8,74.6,1
1985518,15884686043,7.0,28.0,-121.0,0,0.518,812.8,74.6,1
1985519,15884694047,0.0,21.0,-130.0,0,0.513,812.8,74.6,3
1985520,15884702045,0.0,16.0,-138.0,0,0.514,812.8,74.6,3
1985521,15884710047,0.0,12.0,-145.0,0,0.515,812.8,74.6,3
1985522,15884718044,0.0,9.0,-150.0,0,0.506,812.8,74.6,3
1985523,15884726043,0.0,7.0,-154.0,0,0.503,812.8,74.6,3
1985524,15884734047,0.0,5.0,-157.0,0,0.499,812.8,74.6,3
1985525,15884742043,0.0,4.0,-159.0,0,0.494,812.8,74.6,3
1985526,15884750043,0.0,3.0,-160.0,0,0.489,812.8,74.6,3
1985527,15884758043,0.0,2.0,-161.0,0,0.49,812.8,74.6,3
1985528,15884766047,0.0,2.0,-162.0,0,0.491,812.8,74.6,3
1985529,15884774043,0.0,1.0,-162.0,1,0.484,812.8,74.6,3
1985530,15884782044,0.0,1.0,-162.0,0,0.484,812.8,74.6,3
1985531,15884790043,0.0,1.0,-162.0,0,0.484,812.8,74.6,3
1985532,15884798047,0.0,1.0,-161.0,0,0.49,812.8,74.6,3
1985533,15884806043,0.0,0.0,-161.0,1,0.483,812.8,74.6,3
1985534,15884814045,0.0,0.0,-160.0,0,0.489,812.8,74.6,3
1985535,15884822046,0.0,0.0,-159.0,0,0.488,812.8,74.6,3
1985536,15884830043,0.0,0.0,-159.0,1,0.481,812.8,74.6,3
1985537,15884838045,0.0,0.0,-158.0,0,0.486,812.8,74.6,3
1985538,15884846043,0.0,0.0,-157.0,0,0.485,812.8,74.6,3
1985539,15884854046,0.0,0.0,-156.0,0,0.484,812.8,74.6,3
1985540,15884862043,0.0,0.0,-155.0,0,0.483,812.8,74.6,3
1985541,15884870046,0.0,0.0,-154.0,0,0.482,812.8,74.6,3
1985542,15884878043,0.0,0.0,-153.0,0,0.481,812.8,74.6,3
1985543,15884886043,0.0,0.0,-152.0,0,0.48,812.8,74.6,3
1985544,15884894043,0.0,0.0,-151.0,0,0.479,812.8,74.6,3
1985545,15884902044,0.0,0.0,-150.0,0,0.478,812.8,74.6,3
1985546,15884910046,0.0,0.0,-149.0,0,0.477,812.8,74.6,3
1985547,15884918043,0.0,0.0,-148.0,0,0.476,812.8,74.6,3
1985548,15884926047,0.0,0.0,-147.0,0,0.474,812.8,74.6,3
1985549,15884934043,0.0,0.0,-146.0,0,0.473,812.8,74.6,3
1985550,15884942047,0.0,0.0,-145.0,0,0.472,812.8,74.6,3
1985551,15884950043,0.0,0.0,-144.0,0,0.471,812.8,74.6,3
1985552,15884958045,0.0,0.0,-143.0,0,0.47,812.8,74.6,3
1985553,15884966043,0.0,0.0,-142.0,0,0.469,812.8,74.6,3
1985554,15884974047,0.0,0.0,-141.0,0,0.468,812.8,74.6,3
1985555,15884982043,0.0,0.0,-140.0,0,0.467,814.4,74.6,3
1985556,15884990043,5.0,1.0,-139.0,0,0.466,814.4,74.6,1
1985557,15884998046,11.0,4.0,-137.0,0,0.47,814.4,74.6,1
1985558,15885006043,18.0,7.0,-135.0,0,0.468,814.4,74.6,1
1985559,15885014043,21.0,10.0,-132.0,0,0.472,814.4,74.6,1
1985560,15885022043,21.0,13.0,-129.0,0,0.468,814.4,74.6,1
1985561,15885030043,33.0,18.0,-125.0,0,0.471,814.4,74.6,1
1985562,15885038043,37.0,22.0,-120.0,0,0.473,814.4,74.6,1
1985563,15885046043,43.0,27.0,-116.0,0,0.461,814.4,74.6,1
1985564,15885054043,50.0,33.0,-111.0,0,0.463,814.4,74.6,1
1985565,15885062043,54.0,38.0,-105.0,0,0.463,814.4,74.6,1
1985566,15885070043,63.0,44.0,-100.0,0,0.451,814.4,74.6,1
1985567,15885078043,63.0,49.0,-94.0,0,0.451,814.4,74.6,1
1985568,15885086043,72.0,54.0,-89.0,0,0.438,814.4,74.6,1
1985569,15885094043,71.0,58.0,-83.0,0,0.439,814.4,74.6,1
1985570,15885102043,68.0,61.0,-79.0,0,0.42,814.4,74.6,1
1985571,15885110046,76.0,64.0,-74.0,0,0.422,814.4,74.6,1
1985572,15885118043,75.0,67.0,-70.0,0,0.411,814.4,74.6,1
1985573,15885126043,78.0,70.0,-66.0,0,0.406,814.4,74.6,1
1985574,15885134045,80.0,72.0,-63.0,0,0.396,814.4,74.6,1
1985575,15885142046,80.0,74.0,-60.0,0,0.393,814.4,74.6,1
1985576,15885150043,80.0,76.0,-57.0,0,0.39,814.4,74.6,1
1985577,15885158043,84.0,78.0,-54.0,0,0.387,814.4,74.6,1
1985578,15885166045,94.0,82.0,-51.0,0,0.384,814.4,74.6,1
1985579,15885174043,104.0,87.0,-47.0,0,0.386,814.4,74.6,1
1985580,15885182043,120.0,95.0,-42.0,0,0.388,814.4,74.6,1
1985581,15885190043,144.0,107.0,-35.0,0,0.396,814.4,74.6,1
1985582,15885198045,170.0,122.0,-26.0,0,0.402,814.4,74.6,1
1985583,15885206043,212.0,144.0,-13.0,0,0.418,814.4,74.6,1
1985584,15885214047,249.0,169.0,4.0,0,0.436,814.4,74.6,1
1985585,15885222043,295.0,200.0,24.0,0,0.476,814.4,74.6,1
1985586,15885230043,340.0,234.0,48.0,0,0.524,814.4,74.6,1
1985587,15885238043,389.0,271.0,75.0,0,0.569,814.4,74.6,1
1985588,15885246043,437.0,312.0,106.0,0,0.621,814.4,74.6,1
1985589,15885254047,480.0,352.0,140.0,0,0.67,814.4,74.6,1
1985590,15885262046,518.0,393.0,174.0,0,0.707,814.4,74.6,1
1985591,15885270044,548.0,430.0,209.0,0,0.746,814.4,74.6,1
1985592,15885278043,572.0,465.0,243.0,0,0.775,814.4,74.6,1
1985593,15885286043,596.0,496.0,276.0,0,0.799,814.4,74.6,1
1985594,15885294043,609.0,524.0,307.0,0,0.815,814.4,74.6,1
1985595,15885302043,612.0,545.0,334.0,0,0.814,814.4,74.6,1
1985596,15885310043,619.0,563.0,358.0,0,0.812,814.4,74.6,1
1985597,15885318043,610.0,574.0,377.0,0,0.791,814.4,74.6,1
1985598,15885326043,604.0,582.0,392.0,0,0.771,814.4,74.6,1
1985599,15885334047,585.0,582.0,402.0,0,0.738,814.4,74.6,1
1985600,15885342047,567.0,579.0,408.0,0,0.711,814.4,74.6,1
1985601,15885350043,547.0,571.0,409.0,0,0.677,814.4,74.6,1
1985602,15885358046,517.0,558.0,405.0,1,0.696,814.4,74.6,1
1985603,15885366047,492.0,542.0,397.0,0,0.722,814.4,74.6,1
1985604,15885374047,458.0,522.0,385.0,0,0.747,814.4,74.6,1
1985605,15885382043,419.0,497.0,368.0,0,0.775,814.4,74.6,1
1985606,15885390043,390.0,471.0,348.0,0,0.784,814.4,74.6,1
1985607,15885398043,350.0,442.0,325.0,0,0.789,814.4,74.6,1
1985608,15885406043,312.0,410.0,300.0,0,0.784,814.4,74.6,1
1985609,15885414046,272.0,377.0,271.0,0,0.782,814.4,74.6,1
1985610,15885422047,236.0,343.0,241.0,0,0.761,814.4,74.6,1
1985611,15885430043,206.0,309.0,209.0,0,0.74,824.0,73.5,1
1985612,15885438044,172.0,276.0,177.0,0,0.707,824.0,73.5,1
1985613,15885446043,146.0,245.0,145.0,0,0.673,824.0,73.5,1
1985614,15885454047,116.0,213.0,113.0,0,0.638,824.0,73.5,1
1985615,15885462043,99.0,186.0,83.0,0,0.596,824.0,73.5,1
1985616,15885470043,80.0,160.0,53.0,0,0.564,824.0,73.5,1
1985617,15885478047,61.0,136.0,26.0,0,0.522,824.0,73.5,1
1985618,15885486043,52.0,116.0,0.0,0,0.491,824.0,73.5,1
1985619,15885494043,43.0,98.0,-23.0,0,0.496,824.0,73.5,1
1985620,15885502046,34.0,83.0,-43.0,0,0.498,824.0,73.5,1
1985621,15885510044,32.0,70.0,-62.0,0,0.512,824.0,73.5,1
1985622,15885518043,23.0,59.0,-78.0,0,0.508,824.0,73.5,1
1985623,15885526046,23.0,50.0,-91.0,0,0.501,824.0,73.5,1
1985624,15885534044,20.0,43.0,-103.0,0,0.507,824.0,73.5,1
1985625,15885542043,17.0,37.0,-113.0,0,0.503,824.0,73.5,1
1985626,15885550046,16.0,32.0,-121.0,0,0.497,824.0,73.5,1
1985627,15885558043,12.0,27.0,-128.0,0,0.497,824.0,73.5,1
1985628,15885566046,11.0,23.0,-133.0,0,0.488,824.0,73.5,1
1985629,15885574047,7.0,19.0,-138.0,0,0.494,824.0,73.5,1
1985630,15885582045,7.0,16.0,-142.0,0,0.491,824.0,73.5,1
1985631,15885590043,1.0,13.0,-146.0,0,0.496,824.0,73.5,1
1985632,15885598043,0.0,9.0,-149.0,0,0.492,824.0,73.5,3
1985633,15885606047,0.0,7.0,-152.0,0,0.495,825.6,73.5,3
1985634,15885614045,0.0,5.0,-154.0,0,0.49,825.6,73.5,3
1985635,15885622044,0.0,4.0,-156.0,0,0.492,825.6,73.5,3
1985636,15885630045,0.0,3.0,-157.0,0,0.487,825.6,73.5,3
1985637,15885638043,0.0,2.0,-157.0,1,0.48,825.6,73.5,3
1985638,15885646043,0.0,2.0,-158.0,0,0.488,825.6,73.5,3
1985639,15885654043,0.0,1.0,-158.0,1,0.481,825.6,73.5,3
1985640,15885662043,0.0,1.0,-158.0,0,0.481,825.6,73.5,3
1985641,15885670043,0.0,1.0,-157.0,0,0.487,825.6,73.5,3
1985642,15885678046,0.0,1.0,-157.0,1,0.48,825.6,73.5,3
1985643,15885686043,0.0,0.0,-156.0,0,0.486,825.6,73.5,3
1985644,15885694043,0.0,0.0,-155.0,0,0.485,825.6,73.5,3
1985645,15885702046,0.0,0.0,-155.0,1,0.478,825.6,73.5,3
1985646,15885710044,0.0,0.0,-154.0,0,0.483,825.6,73.5,3
1985647,15885718043,0.0,0.0,-153.0,0,0.482,825.6,73.5,3
1985648,15885726046,0.0,0.0,-152.0,0,0.481,825.6,73.5,3
1985649,15885734043,0.0,0.0,-151.0,0,0.48,825.6,73.5,3
1985650,15885742046,0.0,0.0,-150.0,0,0.479,825.6,73.5,3
1985651,15885750043,0.0,0.0,-149.0,0,0.478,825.6,73.5,3
1985652,15885758047,0.0,0.0,-148.0,0,0.477,825.6,73.5,3
1985653,15885766043,0.0,0.0,-147.0,0,0.476,825.6,73.5,3
1985654,15885774047,0.0,0.0,-147.0,1,0.469,825.6,73.5,3
1985655,15885782043,0.0,0.0,-146.0,0,0.475,825.6,73.5,3
1985656,15885790043,0.0,0.0,-145.0,0,0.474,825.6,73.5,3
1985657,15885798047,0.0,0.0,-144.0,0,0.473,825.6,73.5,3
1985658,15885806046,0.0,0.0,-143.0,0,0.471,825.6,73.5,3
1985659,15885814043,0.0,0.0,-142.0,0,0.47,825.6,73.5,3
1985660,15885822043,0.0,0.0,-141.0,0,0.469,825.6,73.5,3
1985661,15885830045,0.0,0.0,-140.0,0,0.468,825.6,73.5,3
1985662,15885838043,4.0,1.0,-139.0,0,0.467,825.6,73.5,1
1985663,15885846046,12.0,4.0,-137.0,0,0.472,825.6,73.5,1
1985664,15885854043,16.0,7.0,-134.0,0,0.475,825.6,73.5,1
1985665,15885862047,22.0,10.0,-131.0,0,0.472,825.6,73.5,1
1985666,15885870043,30.0,15.0,-128.0,0,0.469,825.6,73.5,1
1985667,15885878043,31.0,19.0,-124.0,0,0.471,825.6,73.5,1
1985668,15885886043,42.0,25.0,-119.0,0,0.473,825.6,73.5,1
1985669,15885894043,43.0,29.0,-114.0,0,0.468,825.6,73.5,1
1985670,15885902043,50.0,34.0,-109.0,0,0.462,825.6,73.5,1
1985671,15885910043,57.0,40.0,-104.0,0,0.456,825.6,73.5,1
1985672,15885918046,60.0,45.0,-98.0,0,0.457,824.0,73.5,1
1985673,15885926043,64.0,49.0,-93.0,0,0.444,824.0,73.5,1
1985674,15885934046,68.0,54.0,-88.0,0,0.439,824.0,73.5,1
1985675,15885942046,70.0,58.0,-83.0,0,0.433,824.0,73.5,1
1985676,15885950043,74.0,62.0,-78.0,0,0.428,824.0,73.5,1
1985677,15885958043,71.0,64.0,-74.0,0,0.416,824.0,73.5,1
1985678,15885966043,78.0,67.0,-70.0,0,0.412,824.0,73.5,1
1985679,15885974043,74.0,69.0,-66.0,0,0.407,824.0,73.5,1
1985680,15885982043,78.0,71.0,-63.0,0,0.397,824.0,73.5,1
1985681,15885990043,86.0,75.0,-59.0,0,0.4,824.0,73.5,1
1985682,15885998043,89.0,78.0,-56.0,0,0.389,824.0,73.5,1
1985683,15886006043,103.0,84.0,-52.0,0,0.392,824.0,73.5,1
1985684,15886014043,114.0,91.0,-46.0,0,0.401,824.0,73.5,1
1985685,15886022044,145.0,104.0,-39.0,0,0.401,824.0,73.5,1
1985686,15886030043,175.0,122.0,-29.0,0,0.413,824.0,73.5,1
1985687,15886038045,205.0,142.0,-16.0,0,0.423,824.0,73.5,1
1985688,15886046043,252.0,168.0,1.0,0,0.436,824.0,73.5,1
1985689,15886054043,295.0,199.0,22.0,0,0.483,824.0,73.5,1
1985690,15886062043,343.0,234.0,46.0,0,0.525,824.0,73.5,1
1985691,15886070043,383.0,270.0,74.0,0,0.576,824.0,73.5,1
1985692,15886078044,426.0,308.0,104.0,0,0.618,824.0,73.5,1
1985693,15886086046,474.0,348.0,137.0,0,0.667,824.0,73.5,1
1985694,15886094044,503.0,386.0,170.0,0,0.702,824.0,73.5,1
1985695,15886102044,535.0,422.0,204.0,0,0.741,824.0,73.5,1
1985696,15886110046,561.0,456.0,237.0,0,0.769,824.0,73.5,1
1985697,15886118047,572.0,484.0,268.0,0,0.787,824.0,73.5,1
1985698,15886126046,586.0,509.0,297.0,0,0.801,824.0,73.5,1
1985699,15886134045,593.0,529.0,322.0,0,0.798,824.0,73.5,1
1985700,15886142044,594.0,545.0,344.0,0,0.794,824.0,73.5,1
1985701,15886150045,588.0,555.0,362.0,0,0.779,824.0,73.5,1
1985702,15886158047,574.0,560.0,376.0,0,0.757,824.0,73.5,1
1985703,15886166044,561.0,560.0,384.0,0,0.716,824.0,73.5,1
1985704,15886174044,539.0,555.0,388.0,0,0.688,824.0,73.5,1
1985705,15886182043,514.0,545.0,388.0,1,0.661,824.0,73.5,1
1985706,15886190044,485.0,530.0,382.0,0,0.701,824.0,73.5,1
1985707,15886198043,454.0,512.0,373.0,0,0.719,824.0,73.5,1
1985708,15886206044,428.0,492.0,359.0,0,0.749,824.0,73.5,1
1985709,15886214043,392.0,467.0,342.0,0,0.762,824.0,73.5,1
1985710,15886222046,356.0,440.0,322.0,0,0.77,824.0,73.5,1
1985711,15886230043,319.0,411.0,298.0,0,0.778,824.0,73.5,1
1985712,15886238045,279.0,379.0,272.0,0,0.769,824.0,73.5,1
1985713,15886246047,245.0,347.0,244.0,0,0.756,824.0,73.5,1
1985714,15886254043,210.0,313.0,214.0,0,0.738,824.0,73.5,1
1985715,15886262043,177.0,280.0,183.0,0,0.711,830.4,72.8,1
1985716,15886270043,148.0,248.0,151.0,0,0.681,830.4,72.8,1
1985717,15886278043,117.0,216.0,119.0,0,0.645,830.4,72.8,1
1985718,15886286047,99.0,188.0,89.0,0,0.604,830.4,72.8,1
1985719,15886294046,76.0,161.0,59.0,0,0.571,830.4,72.8,1
1985720,15886302043,59.0,136.0,31.0,0,0.532,830.4,72.8,1
1985721,15886310047,45.0,114.0,4.0,0,0.501,830.4,72.8,1
1985722,15886318046,33.0,94.0,-20.0,0,0.5,830.4,72.8,1
1985723,15886326043,22.0,77.0,-42.0,0,0.511,830.4,72.8,1
1985724,15886334043,15.0,62.0,-62.0,0,0.519,830.4,72.8,1
1985725,15886342046,12.0,50.0,-79.0,0,0.518,830.4,72.8,1
1985726,15886350043,12.0,41.0,-94.0,0,0.52,830.4,72.8,1
1985727,15886358046,4.0,32.0,-107.0,0,0.52,830.4,72.8,1
1985728,15886366043,4.0,25.0,-118.0,0,0.518,830.4,72.8,1
1985729,15886374047,2.0,19.0,-127.0,0,0.512,830.4,72.8,1
1985730,15886382044,4.0,16.0,-134.0,0,0.505,830.4,72.8,1
1985731,15886390043,3.0,13.0,-140.0,0,0.504,830.4,72.8,1
1985732,15886398047,0.0,10.0,-145.0,0,0.502,830.4,72.8,3
1985733,15886406043,0.0,7.0,-148.0,0,0.491,830.4,72.8,3
1985734,15886414046,0.0,5.0,-151.0,0,0.494,830.4,72.8,3
1985735,15886422046,0.0,4.0,-153.0,0,0.489,830.4,72.8,3
1985736,15886430043,0.0,3.0,-155.0,0,0.492,830.4,72.8,3
1985737,15886438043,0.0,2.0,-156.0,0,0.486,830.4,72.8,3
1985738,15886446045,0.0,2.0,-156.0,1,0.479,830.4,72.8,3
1985739,15886454043,0.0,1.0,-157.0,0,0.487,830.4,72.8,3
1985740,15886462043,0.0,1.0,-157.0,1,0.48,830.4,72.8,3
1985741,15886470043,0.0,1.0,-156.0,0,0.486,830.4,72.8,3
1985742,15886478043,0.0,1.0,-156.0,1,0.479,830.4,72.8,3
1985743,15886486043,0.0,0.0,-155.0,0,0.485,830.4,72.8,3
1985744,15886494043,0.0,0.0,-155.0,1,0.478,830.4,72.8,3
1985745,15886502043,0.0,0.0,-154.0,0,0.484,830.4,72.8,3
1985746,15886510043,0.0,0.0,-153.0,0,0.483,830.4,72.8,3
1985747,15886518046,0.0,0.0,-152.0,0,0.481,830.4,72.8,3
1985748,15886526045,0.0,0.0,-151.0,0,0.48,830.4,72.8,3
1985749,15886534045,0.0,0.0,-151.0,1,0.474,830.4,72.8,3
1985750,15886542043,0.0,0.0,-150.0,0,0.479,825.6,72.8,3
1985751,15886550043,0.0,0.0,-149.0,0,0.478,825.6,72.8,3
1985752,15886558043,0.0,0.0,-148.0,0,0.477,825.6,72.8,3
1985753,15886566044,0.0,0.0,-147.0,0,0.476,825.6,72.8,3
1985754,15886574045,0.0,0.0,-146.0,0,0.475,825.6,72.8,3
1985755,15886582045,0.0,0.0,-145.0,0,0.474,825.6,72.8,3
1985756,15886590046,0.0,0.0,-144.0,0,0.473,825.6,72.8,3
1985757,15886598043,0.0,0.0,-143.0,0,0.472,825.6,72.8,3
1985758,15886606043,0.0,0.0,-142.0,0,0.471,825.6,72.8,3
1985759,15886614043,0.0,0.0,-141.0,0,0.469,825.6,72.8,3
1985760,15886622046,0.0,0.0,-140.0,0,0.468,825.6,72.8,3
1985761,15886630043,1.0,0.0,-139.0,0,0.467,825.6,72.8,1
1985762,15886638046,0.0,0.0,-138.0,0,0.466,825.6,72.8,3
1985763,15886646043,12.0,3.0,-137.0,0,0.465,825.6,72.8,1
1985764,15886654045,16.0,6.0,-134.0,0,0.476,825.6,72.8,1
1985765,15886662043,24.0,11.0,-131.0,0,0.472,825.6,72.8,1
1985766,15886670043,31.0,15.0,-127.0,0,0.475,825.6,72.8,1
1985767,15886678043,33.0,20.0,-123.0,0,0.471,825.6,72.8,1
1985768,15886686043,44.0,26.0,-118.0,0,0.473,825.6,72.8,1
1985769,15886694044,44.0,30.0,-113.0,0,0.467,825.6,72.8,1
1985770,15886702046,54.0,36.0,-108.0,0,0.461,825.6,72.8,1
1985771,15886710043,56.0,41.0,-102.0,0,0.462,825.6,72.8,1
1985772,15886718043,60.0,45.0,-97.0,0,0.449,825.6,72.8,1
1985773,15886726047,68.0,51.0,-91.0,0,0.45,825.6,72.8,1
1985774,15886734043,68.0,55.0,-86.0,0,0.437,825.6,72.8,1
1985775,15886742046,71.0,59.0,-81.0,0,0.431,825.6,72.8,1
1985776,15886750043,75.0,63.0,-76.0,0,0.426,825.6,72.8,1
1985777,15886758043,76.0,66.0,-72.0,0,0.414,825.6,72.8,1
1985778,15886766043,79.0,69.0,-68.0,0,0.41,825.6,72.8,1
1985779,15886774043,76.0,71.0,-64.0,0,0.406,825.6,72.8,1
1985780,15886782044,74.0,72.0,-61.0,0,0.395,825.6,72.8,1
1985781,15886790046,80.0,74.0,-58.0,0,0.392,825.6,72.8,1
1985782,15886798043,80.0,75.0,-56.0,0,0.383,825.6,72.8,1
1985783,15886806043,81.0,77.0,-54.0,0,0.381,825.6,72.8,1
1985784,15886814044,88.0,79.0,-51.0,0,0.385,825.6,72.8,1
1985785,15886822043,100.0,84.0,-48.0,0,0.381,825.6,72.8,1
1985786,15886830043,120.0,93.0,-43.0,0,0.391,825.6,72.8,1
1985787,15886838043,143.0,105.0,-36.0,0,0.398,825.6,72.8,1
1985788,15886846047,173.0,122.0,-26.0,0,0.411,825.6,72.8,1
1985789,15886854045,208.0,143.0,-13.0,0,0.421,825.6,72.8,1
1985790,15886862044,249.0,168.0,3.0,0,0.433,825.6,72.8,1
1985791,15886870045,297.0,200.0,24.0,0,0.487,825.6,72.8,1
1985792,15886878043,340.0,234.0,48.0,0,0.529,825.6,72.8,1
1985793,15886886044,394.0,272.0,76.0,0,0.58,825.6,72.8,1
1985794,15886894044,434.0,312.0,107.0,0,0.628,825.6,72.8,1
1985795,15886902047,477.0,352.0,140.0,0,0.672,825.6,72.8,1
1985796,15886910043,523.0,393.0,175.0,0,0.716,825.6,72.8,1
1985797,15886918046,551.0,431.0,210.0,0,0.75,825.6,72.8,1
1985798,15886926044,585.0,469.0,246.0,0,0.786,825.6,72.8,1
1985799,15886934047,600.0,501.0,279.0,0,0.802,825.6,72.8,1
1985800,15886942043,616.0,529.0,311.0,0,0.82,825.6,72.8,1
1985801,15886950045,625.0,552.0,339.0,0,0.819,825.6,72.8,1
1985802,15886958047,620.0,568.0,363.0,0,0.811,825.6,72.8,1
1985803,15886966046,621.0,581.0,383.0,0,0.797,825.6,72.8,1
1985804,15886974043,608.0,588.0,398.0,0,0.769,825.6,72.8,1
1985805,15886982043,591.0,588.0,408.0,0,0.737,825.6,72.8,1
1985806,15886990043,579.0,586.0,414.0,0,0.709,825.6,72.8,1
1985807,15886998047,551.0,578.0,415.0,0,0.673,825.6,72.8,1
1985808,15887006045,527.0,565.0,412.0,1,0.686,825.6,72.8,1
1985809,15887014043,495.0,548.0,404.0,0,0.719,825.6,72.8,1
1985810,15887022043,464.0,528.0,391.0,0,0.751,825.6,72.8,1
1985811,15887030043,433.0,505.0,375.0,0,0.766,825.6,72.8,1
1985812,15887038043,400.0,479.0,356.0,0,0.777,825.6,72.8,1
1985813,15887046043,364.0,451.0,334.0,0,0.783,825.6,72.8,1
1985814,15887054043,329.0,422.0,309.0,0,0.784,825.6,72.8,1
1985815,15887062047,290.0,390.0,281.0,0,0.779,825.6,72.8,1
1985816,15887070047,259.0,358.0,253.0,0,0.756,825.6,72.8,1
1985817,15887078043,215.0,323.0,222.0,0,0.742,825.6,72.8,1
1985818,15887086043,186.0,290.0,190.0,0,0.715,825.6,72.8,1
1985819,15887094043,152.0,257.0,158.0,0,0.682,825.6,72.8,1
1985820,15887102043,124.0,224.0,125.0,0,0.65,825.6,72.8,1
1985821,15887110043,102.0,195.0,94.0,0,0.608,825.6,72.8,1
1985822,15887118044,76.0,166.0,63.0,0,0.575,825.6,72.8,1
1985823,15887126044,61.0,141.0,33.0,0,0.539,825.6,72.8,1
1985824,15887134043,48.0,118.0,6.0,0,0.498,825.6,72.8,1
1985825,15887142043,35.0,98.0,-19.0,0,0.504,825.6,72.8,1
1985826,15887150043,25.0,80.0,-41.0,0,0.509,825.6,72.8,1
1985827,15887158046,12.0,64.0,-62.0,0,0.526,825.6,72.8,1
1985828,15887166043,6.0,50.0,-81.0,0,0.534,822.4,72.8,1
1985829,15887174043,3.0,38.0,-97.0,0,0.532,822.4,72.8,1
1985830,15887182046,0.0,29.0,-111.0,0,0.533,822.4,72.8,3
1985831,15887190043,0.0,22.0,-123.0,0,0.532,822.4,72.8,3
1985832,15887198043,0.0,17.0,-132.0,0,0.519,822.4,72.8,3
1985833,15887206044,0.0,13.0,-140.0,0,0.52,822.4,72.8,3
1985834,15887214043,0.0,10.0,-146.0,0,0.512,822.4,72.8,3
1985835,15887222043,0.0,7.0,-151.0,0,0.509,822.4,72.8,3
1985836,15887230043,0.0,5.0,-154.0,0,0.498,822.4,72.8,3
1985837,15887238043,0.0,4.0,-157.0,0,0.501,822.4,72.8,3
1985838,15887246046,0.0,3.0,-159.0,0,0.495,822.4,72.8,3
