t_us,hr_bpm,time_status,time_validity_reason,rmssd_ms,rmssd_ci_low_ms,rmssd_ci_high_ms,sdnn_ms,pnn50_percent,fiducial_quality_mean,fiducial_uncertainty_p95_ms,fiducial_shift_p95_ms,fiducial_unstable_ratio,frequency_status,frequency_validity_reason,total_power_ms2,vlf_ms2,lf_ms2,hf_ms2,lf_nu,hf_nu,lf_hf,hf_lf,median_frequency_hz,thm_power_ms2,resonance_band_power_ms2,resonance_share,lf_peak_frequency_hz,lf_peak_prominence_ratio,spectral_agreement,spectral_agreement_raw,spectral_shape_agreement,band_power_agreement,interpolation_agreement,sqi,overall_status,detected_artifact_ratio,corrected_ratio,unresolved_suspect_ratio,max_consecutive_artifacts,protocol_error_ratio,protocol_crc_errors,protocol_format_errors,protocol_seq_gaps
37254092,79.79073549770136,INVALID,有效 NN 不足：26/40；连续有效 NN 对不足：25/30,nan,nan,nan,nan,nan,1.0,7.0,375.49925,0.0,LIMITED,频域窗口积累中：21/300 秒,nan,nan,nan,nan,nan,nan,nan,nan,nan,nan,nan,nan,nan,nan,0.0,0.0,0.0,0.0,0.0,0.9833713366152343,INVALID,0.0,0.0,0.0,0,0.0008090614886731392,2,1,9
57546933,81.61410944724123,VALID,,62.095854770142395,41.6613187430674,75.85055397099461,74.21212225501716,30.76923076923077,1.0,7.0,366.08,0.0,LIMITED,频域窗口积累中：41/300 秒,nan,nan,nan,nan,nan,nan,nan,nan,nan,nan,nan,nan,nan,nan,0.0,0.0,0.0,0.0,0.0,0.9972192261427426,LIMITED,0.0,0.0,0.0,0,0.00048115477145148355,2,1,9
78065822,81.55509250386368,VALID,,41.57319790808839,34.76181782481904,48.2618285527258,31.679814694657754,22.033898305084744,1.0,7.0,330.88935,0.0,LIMITED,频域窗口积累中：61/300 秒,nan,nan,nan,nan,nan,nan,nan,nan,nan,nan,nan,nan,nan,nan,0.0,0.0,0.0,0.0,0.0,0.997925283286119,LIMITED,0.0,0.0,0.0,0,0.00033994334277620395,2,1,9
98213623,81.60145576997094,VALID,,39.350680617592836,32.891999595433965,46.00967512300066,42.37400247013139,18.64406779661017,1.0,7.0,318.64164999999997,0.0,LIMITED,频域窗口积累中：82/300 秒,nan,nan,nan,nan,nan,nan,nan,nan,nan,nan,nan,nan,nan,nan,0.0,0.0,0.0,0.0,0.0,0.9983052745029034,LIMITED,0.0,0.0,0.0,0,0.0002639450994193208,2,1,9
119001825,82.2155444929973,VALID,,37.19818621717272,28.638719314809812,43.77556432183139,56.23063510328122,16.94915254237288,1.0,7.0,319.09535,0.0,LIMITED,频域窗口积累中：102/300 秒,nan,nan,nan,nan,nan,nan,nan,nan,nan,nan,nan,nan,nan,nan,0.0,0.0,0.0,0.0,0.0,0.9985554812834225,LIMITED,0.0,0.0,0.0,0,0.000213903743315508,2,1,9
139545673,74.57538639372076,VALID,,58.57235079232336,44.28827141446986,73.98180471745276,66.05053045870893,35.59322033898305,1.0,7.0,342.73774999999995,0.0,LIMITED,频域窗口积累中：123/300 秒,nan,nan,nan,nan,nan,nan,nan,nan,nan,nan,nan,nan,nan,nan,0.0,0.0,0.0,0.0,0.0,0.9988006655075246,LIMITED,0.0,0.0,0.0,0,0.0001798668984951136,2,1,9
159807825,69.29518710277978,VALID,,62.199153755892475,50.69254936906931,75.6995706283461,66.30078238585966,37.28813559322034,1.0,7.0,359.04035,0.0,LIMITED,频域窗口积累中：143/300 秒,nan,nan,nan,nan,nan,nan,nan,nan,nan,nan,nan,nan,nan,nan,0.0,0.0,0.0,0.0,0.0,0.9989184243434766,LIMITED,0.0,0.0,0.0,0,0.0001563151313047103,2,1,9
180485168,82.93272221131811,VALID,,50.95683467073889,40.4936015307646,62.323242554351914,54.83138681956512,25.423728813559322,1.0,7.0,361.477,0.0,LIMITED,频域窗口积累中：164/300 秒,nan,nan,nan,nan,nan,nan,nan,nan,nan,nan,nan,nan,nan,nan,0.0,0.0,0.0,0.0,0.0,0.9990113263853818,LIMITED,0.0,0.0,0.0,0,0.00013773472292364906,2,1,9
200858625,86.94329123828982,VALID,,37.223847156796445,32.001976503807015,41.490237629132636,58.51328501345018,18.64406779661017,1.0,7.0,360.51465,0.0,LIMITED,频域窗口积累中：184/300 秒,nan,nan,nan,nan,nan,nan,nan,nan,nan,nan,nan,nan,nan,nan,0.0,0.0,0.0,0.0,0.0,0.999086352479136,LIMITED,0.0,0.0,0.0,0,0.00012272950417280314,2,1,9
221285534,77.81909395228911,VALID,,42.78368887056003,35.23921466759325,49.654855763647404,57.058692966805914,28.8135593220339,1.0,7.0,334.55335,0.0,LIMITED,频域窗口积累中：205/300 秒,nan,nan,nan,nan,nan,nan,nan,nan,nan,nan,nan,nan,nan,nan,0.0,0.0,0.0,0.0,0.0,0.9991435376168571,LIMITED,0.0,0.0,0.0,0,0.00011129247662857991,2,1,9
241823046,73.52941176470588,VALID,,45.51669532197937,37.832983828317765,53.410934377694346,59.95766214160627,30.508474576271187,1.0,7.0,349.48834999999997,0.0,LIMITED,频域窗口积累中：225/300 秒,nan,nan,nan,nan,nan,nan,nan,nan,nan,nan,nan,nan,nan,nan,0.0,0.0,0.0,0.0,0.0,0.9991184657076284,LIMITED,0.0,0.0,0.0,0,0.00010130685847431871,2,1,9
261920149,75.63438339068941,VALID,,45.60925902281432,38.066542482566035,53.99879629016862,46.964153255408085,27.11864406779661,1.0,7.0,350.68915,0.0,LIMITED,频域窗口积累中：245/300 秒,nan,nan,nan,nan,nan,nan,nan,nan,nan,nan,nan,nan,nan,nan,0.0,0.0,0.0,0.0,0.0,0.9991580739299611,LIMITED,0.0,0.0,0.0,0,9.33852140077821e-05,2,1,9
282378388,78.84891103083125,VALID,,43.9363305193831,36.933007619624576,49.69315594686563,41.8828681791747,27.11864406779661,1.0,7.0,351.48715,0.0,LIMITED,频域窗口积累中：266/300 秒,nan,nan,nan,nan,nan,nan,nan,nan,nan,nan,nan,nan,nan,nan,0.0,0.0,0.0,0.0,0.0,0.9992678603324595,LIMITED,0.0,0.0,0.0,0,8.642793350810982e-05,2,1,9
302892443,78.06909114566392,VALID,,41.457593356732644,35.92167116567277,47.800329801505306,38.12551887254211,25.423728813559322,1.0,7.0,335.21379999999994,0.0,LIMITED,频域窗口积累中：286/300 秒,nan,nan,nan,nan,nan,nan,nan,nan,nan,nan,nan,nan,nan,nan,0.0,0.0,0.0,0.0,0.0,0.9992978552278821,LIMITED,0.0,0.0,0.0,0,8.04289544235925e-05,2,1,9
323558625,76.5027043705995,VALID,,39.88052029075117,32.1531468133042,49.154150521849274,39.8183814028407,16.94915254237288,1.0,7.0,330.49985,0.0,VALID,,3696.5022237437443,1718.4623899380008,1518.431927966707,443.95268750800506,77.37687688707189,22.623123112928113,3.4202561910143356,0.2923757590519653,0.055492997655696104,558.336158184905,126.16046550825786,0.06405273671884582,0.0625,36.15985780982918,0.9660316863217233,0.8887945222838676,0.9806159000876398,0.9320018542012515,0.9999419526831399,0.9992495964411743,VALID,0.0,0.0,0.0,0,7.508071176514753e-05,2,1,9
343929554,84.87259209383514,VALID,,36.238177429195176,27.841055300525664,47.96629260517671,47.195332109562706,11.864406779661017,1.0,7.0,320.8082,0.0,VALID,,3507.941189497237,1797.1892628534063,1261.53159514845,431.0568229133408,74.5326850690051,25.4673149309949,2.926601617443988,0.3416932438086233,0.03558706575865481,479.06943667103144,136.5904644524769,0.0804629498556939,0.0625,25.863696235603324,0.9739490933746723,0.893338203115389,0.9842249556986592,0.9499720812853697,0.9999320130183851,0.9993474487037864,VALID,0.0,0.0,0.0,0,7.051025924271982e-05,2,1,9
364184077,93.12504365236421,VALID,,25.476803316024377,20.930702625758787,29.234665360395457,42.29239192884788,3.389830508474576,1.0,7.0,296.64425,0.0,VALID,,3224.7527447213292,1721.2230879773128,1051.7201721516278,428.9923206305623,71.02797992711565,28.972020072884348,2.4516060581358134,0.4078958757184643,0.03186660585808037,447.3442046089104,151.90104693229543,0.10234305308349188,0.0625,14.590115674526396,0.9757907966411895,0.9014697181898788,0.9705670744352091,0.9879794817884772,0.9999184914155069,0.9963679620118551,VALID,0.0,0.0,0.0,0,6.656755497370581e-05,2,1,9
384512865,76.96718504065791,VALID,,27.27408197370674,21.145678765460197,33.41227243103151,58.066815342035945,6.779661016949152,1.0,7.0,331.78635,0.0,VALID,,3014.3698012752934,1611.2596540079694,928.9328120997136,440.7843843809591,67.81931441661806,32.180685583381944,2.1074539956861535,0.4745062060889334,0.03288965358947237,456.99627294815843,167.57928860727583,0.12203481780108051,0.0625,8.873576065170342,0.9890474598134926,0.9557322247228592,0.9903849091891799,0.9859267446035556,0.9999236758650556,0.9963110176159857,VALID,0.0,0.0,0.0,0,6.295643414756988e-05,2,1,9
405007825,75.1503947274483,VALID,,43.19807827234596,35.73336796414201,50.67988105195413,66.64349043768277,22.033898305084744,1.0,7.0,344.66055,0.0,VALID,,2576.7901277365913,1222.9277429326903,849.0618103293868,454.3038036593418,65.14379397588813,34.856206024111856,1.8689295653928821,0.535065643198695,0.048013272215510105,460.8638719185595,184.71848525553978,0.1411245084969369,0.0625,6.081300099692415,0.9502846735487562,0.9192254640884742,0.9661307550167176,0.9133104834568468,0.9998989699560702,0.9994014271780888,VALID,0.0,0.0,0.0,0,5.971456438225283e-05,2,1,9
425184149,79.77694366551123,VALID,,43.65438432346763,37.52154230438753,51.943852457355405,47.96975877698106,23.728813559322035,1.0,7.0,335.8834999999999,0.0,INVALID,VLF/LF/HF 频带一致性 82% < 82%,nan,nan,nan,nan,nan,nan,nan,nan,nan,nan,nan,nan,nan,nan,0.8995673139472358,0.8350675873571264,0.9355143925275344,0.8156907972598724,0.9998386479962513,0.9994160704145373,LIMITED,0.0,0.0,0.0,0,5.6785917092561044e-05,2,1,9
445629421,80.64657043738667,VALID,,33.85533010485165,27.250270730133142,39.82570105694931,33.07350300176302,13.559322033898304,1.0,7.0,338.0944,0.0,INVALID,VLF/LF/HF 频带一致性 80% < 82%,nan,nan,nan,nan,nan,nan,nan,nan,nan,nan,nan,nan,nan,nan,0.8833834171884196,0.6688297688548778,0.9185358428394078,0.8013610906694474,0.9998001738922759,0.9994293395885963,LIMITED,0.0,0.0,0.0,0,5.413208228076507e-05,2,1,9
466314257,78.12174492729469,VALID,,31.95241144980497,26.937610047361446,37.63935893297177,30.483368591616856,15.254237288135593,1.0,7.0,338.0944,0.0,LIMITED,受限输出：频带一致性 85%,2135.8764070036304,845.0834949269972,781.5739011442715,422.58284514382626,64.90632582124634,35.093674178753645,1.8495163969049961,0.5406818786107614,0.05305599773787898,355.7437222765803,307.2126324098545,0.25159774641935867,0.05078125,3.5354687356974983,0.9206915117781167,0.7040183685743642,0.9503292460297434,0.8515367985243213,0.9998923523738709,0.9994414149772446,LIMITED,0.0,0.0,0.0,0,5.17170045510964e-05,2,1,9
486894240,77.84271878669149,VALID,,35.24706053449046,29.75323811230436,41.41156236551436,30.17196609240229,20.33898305084746,1.0,7.0,333.16355,0.0,VALID,,2523.390014666452,1197.4298799150727,846.1715122902846,396.81234070830686,68.07582497946122,31.924175020538787,2.1324223706850325,0.46895024820001013,0.042953897594722214,350.24383229399893,344.97468661471794,0.27347478050258484,0.05078125,5.007081985794194,0.9638563906835168,0.8439506106722595,0.9781218499028679,0.9305703191716979,0.9999212435601227,0.9994527404599028,VALID,0.0,0.0,0.0,0,4.9451908019451084e-05,2,1,9
507456625,79.48788604616657,VALID,,33.75482236759358,28.82321369820018,36.977734118907506,27.271303589152,13.559322033898304,1.0,7.0,335.34,0.0,VALID,,3090.4001649268444,1756.0718548238535,883.9768583620837,376.9487098553959,70.10539564295827,29.894604357041736,2.345085247011968,0.42642373076806817,0.019208155052342055,349.44278644958814,349.2111444459075,0.2732575334092624,0.05078125,6.70355854812664,0.9693265458852429,0.9581582517312051,0.9937915856643667,0.9122414530672877,0.9999568748267846,0.9994628495992159,VALID,0.0,0.0,0.0,0,4.7430080156835466e-05,2,1,9
527618796,79.85253897802059,VALID,,30.39892518645232,27.26135174833986,33.86564365528967,40.36940014999055,1.694915254237288,1.0,7.0,337.82995,0.0,LIMITED,受限输出：频带一致性 86%,3368.840980232785,2094.973134544986,847.8309686681575,365.2757086799625,69.8892343517172,30.110765648282793,2.321071312768261,0.4308355346511671,0.017701773701600455,329.01643491025527,314.72498952128467,0.25658591606716397,0.08984375,6.872804032628116,0.9496745105752309,0.9295862218180355,0.9882579685727038,0.8596464419144612,0.9999631918566066,0.9994719290243124,LIMITED,0.0,0.0,0.0,0,4.56141951375268e-05,2,1,9
547706773,74.44168734491315,VALID,,38.00329700951247,30.764848743029372,46.562979868436805,49.943441890047744,11.864406779661017,1.0,7.0,338.0202,0.0,INVALID,VLF/LF/HF 频带一致性 80% < 82%,nan,nan,nan,nan,nan,nan,nan,nan,nan,nan,nan,nan,nan,nan,0.9085203547693933,0.8752634966461842,0.9564509964538705,0.7966821908389466,0.9999644115146248,0.9994805605945345,LIMITED,0.0,0.0,0.0,0,4.3887881093100825e-05,2,1,9
567806625,72.55025011698727,VALID,,43.804490299201994,37.199722153931575,50.61188548957595,65.27478624106453,28.8135593220339,1.0,7.0,356.15389999999996,0.0,LIMITED,受限输出：频带一致性 85%,2619.1258768345924,1643.521978332536,596.3657514994593,350.7020945240578,62.96969683887363,37.03030316112636,1.7004909888228488,0.5880654508450186,0.018895917893343564,233.5434606573605,183.15521040428987,0.19219490416874316,0.08984375,5.315890392352391,0.9334265567544423,0.8776983832732155,0.9689127687616576,0.8506253954042735,0.999946437374955,0.9994883329099993,LIMITED,0.0,0.0,0.0,0,4.233341800016933e-05,2,1,9
588141954,81.6947855579958,VALID,,46.24946897908622,41.449730779069306,52.467744513126156,55.054982629055424,38.983050847457626,1.0,7.0,359.2025,0.0,LIMITED,受限输出：频带一致性 88%,1982.8926406954995,1165.9220787018276,460.15534563318676,338.0746728283971,57.646960774544276,42.35303922545573,1.3611056450441539,0.7346968280096732,0.024232618902353224,185.7021830582935,126.42342080766394,0.15743778846989961,0.08984375,3.426335969552407,0.9389377371866323,0.8618507015287182,0.9645041917658236,0.8792826765018529,0.9998770829171287,0.9994957877826638,LIMITED,0.0,0.0,0.0,0,4.084244346725117e-05,2,1,9
608456080,78.33123144528956,VALID,,36.21457968829681,30.84437045287657,41.70818682975739,49.823268094845474,25.423728813559322,1.0,7.0,349.8443,0.0,LIMITED,受限输出：频带一致性 89%,1383.2396280608793,677.8810351972024,365.1112091533437,321.0491881389642,53.2107668402501,46.78923315974991,1.1372438325410357,0.8793189036388259,0.0432911187444454,150.147813020686,85.21811842091077,0.12308539152017846,0.0703125,4.678350186706457,0.9217382736147424,0.8246887865273593,0.9350283192435488,0.8907281671475278,0.9995218571801079,0.9995027302138405,LIMITED,0.0,0.0,0.0,0,3.945395723191036e-05,2,1,9
629233291,73.45892360639239,VALID,,39.362372081486086,33.076844012622686,44.402179454941994,45.934402666922196,20.33898305084746,1.0,7.0,331.71545,0.0,INVALID,VLF/LF/HF 频带一致性 75% < 82%,nan,nan,nan,nan,nan,nan,nan,nan,nan,nan,nan,nan,nan,nan,0.8212753583212751,0.6679510839725838,0.8501477688394792,0.7539064004454656,0.9990372013197562,0.9994343882634,LIMITED,0.0,0.0,0.0,0,3.8122347319998986e-05,2,1,9
649789440,77.59045430504169,VALID,,47.27909019386183,40.70798728494419,54.360838984132876,47.988960039198446,30.508474576271187,1.0,7.0,340.9613,0.0,INVALID,VLF/LF/HF 频带一致性 77% < 82%,nan,nan,nan,nan,nan,nan,nan,nan,nan,nan,nan,nan,nan,nan,0.8365453739586788,0.6993713298754256,0.8664781882299396,0.7667021406590704,0.9993782459890387,0.99951545502639,LIMITED,0.0,0.0,0.0,0,3.6908994722013756e-05,2,1,9
669857394,81.27262087947813,VALID,,45.17208675513629,38.12136616721665,52.94161432433161,52.8505200745274,28.8135593220339,1.0,7.0,340.9613,0.0,VALID,,1592.676956797876,557.4310685198739,658.2664387430725,308.85100460791557,68.064788125652,31.935211874348003,2.1313398011404807,0.4691884416857882,0.06468620030075468,236.92108844782464,78.16476008565866,0.07949297343309708,0.06640625,4.780662172326815,0.9720364566476751,0.8129765412815838,0.9666234010807334,0.9846669196372062,0.9997964177941623,0.9995209917059491,VALID,0.0,0.0,0.0,0,3.580165881019154e-05,2,1,9
690182625,79.22298100232915,VALID,,45.0120410161623,38.27301724280631,50.542909719428,48.80580459764438,27.11864406779661,1.0,7.0,336.99240000000003,0.0,LIMITED,受限输出：Welch/Lomb 稳健一致性 90%,2159.4293828046093,868.1499465834374,892.8109076254195,321.9283113528437,73.49815447437165,26.501845525628358,2.773322122163,0.36057838071116993,0.0597906668655222,311.1754377093598,134.22348058599255,0.10891047787693568,0.06640625,5.106434142095327,0.8992554538631177,0.7847630890700058,0.8882447566736685,0.9249470806384992,0.999852827291936,0.9929281102329138,LIMITED,0.0,0.0,0.0,0,3.472985957560111e-05,2,1,9
710463383,74.2861104783035,VALID,,48.104205604225065,42.63048146742327,55.2299449335631,55.24646939496713,30.508474576271187,1.0,7.0,348.60209999999995,0.0,VALID,,2650.0004897035215,1156.555041598906,1083.4892946333446,334.18028025939503,76.42749155530979,23.572508444690225,3.242229893973176,0.30842970199579356,0.05691071594122587,371.79155877834086,213.64299258130887,0.14889746434333248,0.0625,5.46023010520751,0.9440343363790797,0.8430570872550178,0.9547793643088011,0.9189626045430637,0.999901711107054,0.9929313943685719,VALID,0.0,0.0,0.0,0,3.372112628561794e-05,2,1,9
731085394,79.612446609903,VALID,,44.737814733952874,38.50454007291053,51.36562411029482,46.273164142356634,28.8135593220339,1.0,7.0,365.85435,0.0,LIMITED,受限输出：频带一致性 90%,2912.515600333696,1335.1976444927186,1166.5957878036106,339.7644353896194,77.44467557239557,22.555324427604443,3.433542967691235,0.29124435296419626,0.05332708950101,410.00222965754364,291.5028846001216,0.1916817353734021,0.0625,5.093743982892679,0.9363641739245425,0.8749818340934981,0.9533807850331785,0.8966587480043917,0.9999132621613489,0.9995361551064992,LIMITED,0.0,0.0,0.0,0,3.276897870016384e-05,2,1,9
751680555,76.4405216301196,VALID,,44.210044873634914,37.221421612629264,50.01521356548577,41.60478226924044,27.11864406779661,1.0,7.0,351.31269999999995,0.0,VALID,,2824.091541249596,1271.8376773560776,1144.4458827451556,336.76392720674147,77.26426567363349,22.7357343263665,3.398362444094474,0.29425937240383415,0.05518235717074347,437.8044750034027,343.9437119884511,0.23064488428421395,0.0625,3.4751461501833534,0.9596257395896735,0.8526493051292087,0.9748554542268267,0.9240897387696496,0.9999053416719302,0.8055440842441308,VALID,0.0,0.0,0.0,0,3.1858970955238146e-05,2,1,9
771867315,78.35455435847209,VALID,,46.645055411650354,39.0577329512513,52.523298636867594,36.57697203387603,28.8135593220339,1.0,7.0,317.7693,0.0,VALID,,2550.648341870079,1056.8939781983865,1081.49197119281,331.96165330418944,76.51414609217736,23.485853907822648,3.257882229553173,0.3069478666014126,0.057894578918071385,474.482440768493,367.3545617882751,0.2588902721576661,0.05859375,3.569139123550882,0.9662868869470884,0.8813175648156982,0.9839299969592724,0.9251196302519928,0.999887044298935,0.9592699692522352,VALID,0.0,0.0,0.0,0,3.100614955299468e-05,2,1,9
792159214,77.36834164828095,VALID,,51.32953475537636,43.770573794707495,60.255678784090875,40.09248752677318,33.89830508474576,1.0,7.0,5.6098,0.0,VALID,,2281.688720711756,815.9157909948177,1036.6344502392346,334.25201692743,75.61781920436789,24.38218079563211,3.1013558564832833,0.3224396187588511,0.06188535029977894,530.8653710796834,389.32898576314153,0.28343597296359635,0.04296875,4.083922316149913,0.9635438642966887,0.8226210611712136,0.9727598770381484,0.9420398345666161,0.9998247951467044,0.9940753380859475,VALID,0.0,0.0,0.0,0,3.022030603096574e-05,2,1,9
812269733,78.57537604865388,VALID,,48.203974665046815,38.58920978147682,57.995978488508335,40.91089262315657,30.508474576271187,1.0,7.0,5.506799999999998,0.0,VALID,,2135.5579510461234,654.6617416761187,1026.9078227782607,348.922924166468,74.63910986570754,25.360890134292468,2.9430792637984773,0.3397801793178185,0.07316258824250786,594.7913463484529,430.78368925411,0.3124179944190065,0.09375,5.1983621059683545,0.920767754359553,0.7382431915897943,0.909720307092492,0.9465451313160289,0.9997325004977285,0.9946776623906018,VALID,0.0,0.0,0.0,0,2.9467521879634994e-05,2,1,9
832278443,92.47856423946399,VALID,,38.78152892043814,30.931224611125778,46.97760053346045,52.80844946115387,18.64406779661017,1.0,7.0,6.0074499999999995,0.0,VALID,,2163.259105175201,669.8370660637488,1022.0774149414442,370.45199840234466,73.39718681325354,26.602813186746467,2.7590009484342826,0.36245003850669005,0.07673031681836397,629.8055396748175,475.4272358203192,0.34000148958405946,0.08984375,6.000330279362262,0.9246797967850054,0.6788157951385119,0.9228145326913868,0.9290320796701157,0.9997321081834627,0.8837121220071116,VALID,0.0,0.0,0.0,0,2.8749952083413195e-05,2,1,9
852576832,80.03532225555546,VALID,,37.31648031661532,31.6146159120801,42.65661569116276,48.45908292342498,16.94915254237288,1.0,7.0,4.869349999999998,0.0,VALID,,2115.2862432373286,670.400477874843,975.1624541174451,388.164866203125,71.52812384689447,28.471876153105523,2.512237811876428,0.39805148830758386,0.08049944732324857,610.3741780663756,484.1513469159268,0.3527324607179702,0.08984375,5.5942576431771,0.9509108359706502,0.765725354655124,0.9508307320316062,0.9510977451617528,0.9997034047044097,0.8836847659025466,VALID,0.0,0.0,0.0,0,2.8046819490669756e-05,2,1,9
873238883,79.36518434548194,VALID,,32.7842465401203,27.689759833433758,38.452529431266626,45.58352725318133,13.559322033898304,1.0,7.0,5.101149999999999,0.0,VALID,,1941.4104153956869,620.4867711138302,872.4997195272754,393.9624030257018,68.89268174625396,31.107318253746037,2.2146776261549865,0.4515329852932819,0.08227542101821492,536.1574506721236,432.46873000346466,0.3384187384004668,0.078125,4.975356340787892,0.9437949920804967,0.7752028029995399,0.9504106094055732,0.9283585516553182,0.9996958852188542,0.989288099964406,VALID,0.0,0.0,0.0,0,2.738000711880185e-05,2,1,9
893415668,80.65155704551839,VALID,,43.28399076458264,33.0690887409574,51.17607359207549,37.387030794245845,22.033898305084744,1.0,7.0,5.077649999999999,0.0,LIMITED,受限输出：Welch/Lomb 稳健一致性 88%,1713.2739727341716,550.9829616979524,743.8093912524164,389.26429712335107,65.64527963919525,34.35472036080474,1.9108081494993006,0.523338776978754,0.08113215428602437,438.13398158189625,339.8174622186888,0.29692786053368075,0.078125,5.85279616106573,0.8828847849343366,0.7777892184019718,0.8640927677942165,0.9267328249279505,0.9996019668607038,0.9892911968690068,LIMITED,0.0,0.0,0.0,0,2.676062619865305e-05,2,1,9
914255888,70.8932430468498,VALID,,46.74779484113101,38.87948456942931,54.76781269480794,59.109557093412384,28.8135593220339,1.0,7.0,5.1413,0.0,LIMITED,受限输出：Welch/Lomb 稳健一致性 89%,1480.7697603817862,437.5097085502196,649.5214848237258,380.7721251358259,63.04236758774281,36.95763241225718,1.705801034127784,0.5862348421610164,0.07933350761567769,369.9451919956191,253.40531327186773,0.24383978596105982,0.078125,9.04481467397203,0.8870085357465267,0.6105552600471281,0.8696790967819809,0.9274438933304673,0.9994654677249273,0.9994942434425587,LIMITED,0.0,0.0,0.0,0,2.6151311488271138e-05,2,1,9
934850354,70.72602623464066,VALID,,52.920412703102265,42.222463725612954,64.4340027034329,59.1874126126909,33.33333333333333,1.0,7.0,5.278699999999999,0.0,VALID,,1484.340792228104,462.8560556915898,638.1839783612489,374.1037577860099,63.04373307832029,36.95626692167972,1.705901010292163,0.5862004852372612,0.07523417184133527,365.8210748267009,211.18150222180998,0.2075273548516106,0.078125,11.395675680795074,0.9321414255665037,0.6459677233711846,0.9157799151956906,0.970318283098401,0.9995749855979236,0.9873724882706583,VALID,0.016666666666666666,0.0,0.016666666666666666,1,5.1142175247187183e-05,4,2,18
955372551,83.43414959743023,VALID,,48.343470389839965,37.73791379648685,60.569200114100845,59.404480843510164,29.82456140350877,1.0,7.0,5.60515,0.0,VALID,,1644.673883007831,562.0006784681618,698.16085842809,367.89752766597337,65.48992696226378,34.510073037736234,1.897704675694298,0.526952382427017,0.06883752748096382,409.71055229619185,205.67830638100827,0.19247486883357115,0.078125,7.718777818984225,0.9613907416456301,0.7801130620696392,0.9513065126564717,0.9849206092870001,0.9996485885028217,0.9993748415663254,VALID,0.016666666666666666,0.0,0.016666666666666666,1,5.003168673493213e-05,4,2,18
975921625,75.08841661055894,VALID,,48.97878153026732,37.35090515321601,54.79780279364636,61.70178093132336,27.586206896551722,1.0,7.0,5.346399999999999,0.0,VALID,,1893.502783115191,732.2652265515919,771.2175156013188,357.6094631791605,68.3202590032441,31.6797409967559,2.156591463618352,0.4636946852799786,0.057913267269956374,457.15487922837843,204.04029478936775,0.18058875176785916,0.07421875,8.066402498482638,0.976384932710737,0.8993310956956433,0.9732890632001427,0.9836086282354571,0.9997903249316304,0.9993801759876608,VALID,0.016666666666666666,0.0,0.016666666666666666,1,4.896480246782604e-05,4,2,18
996321292,75.82727557654005,VALID,,40.801484865593906,32.77601769752839,50.22200005906324,51.02318146918407,20.33898305084746,1.0,7.0,5.4623,0.0,VALID,,2103.689631822585,903.6443207747387,801.7218063772242,344.3093841939595,69.9563688120604,30.043631187939585,2.328492463991603,0.42946241633342314,0.048821450542502504,470.60416528925003,193.1679214487085,0.16844167527561213,0.07421875,9.37339526707941,0.9628006803169016,0.8985657623615035,0.9653634103903335,0.9568209768122276,0.999880138947355,0.9993851439136519,VALID,0.0,0.0,0.0,0,4.797121726963822e-05,4,2,18
1016598292,74.01102764311882,VALID,,40.06963203165887,31.451393157285622,47.20336633463533,31.583238957474187,23.728813559322035,1.0,7.0,5.455,0.0,VALID,,2222.284822765562,1011.8298521549058,788.4012717064911,345.8690210859782,69.5073543507447,30.492645649255294,2.2794792931469443,0.43869668086321856,0.044429232548901645,443.41819747263526,191.17420575608688,0.1682403224812638,0.0703125,9.306853223814576,0.9587901083390874,0.8888609437898206,0.9660071598368514,0.9419503215109716,0.9999083339401036,0.9993899694852049,VALID,0.0,0.0,0.0,0,4.700610295903418e-05,4,2,18
1036951668,77.21550590312542,VALID,,40.82960305497861,35.63805185533545,46.80736501366367,34.287787083729285,27.11864406779661,1.0,7.0,5.4655,0.0,VALID,,2346.5491654654315,1086.946014223371,782.1507268277805,383.2399178707284,67.1148966559729,32.88510334402711,2.040890550163435,0.4899821795538814,0.04286218175881554,399.2332900043194,218.5884102218542,0.186691534632457,0.07421875,7.075322178009398,0.9675802080246136,0.8818941066524221,0.9766276842371755,0.9464694301953032,0.9999169362703075,0.9993947037622729,VALID,0.0,0.0,0.0,0,4.605924754542593e-05,4,2,18
1057428625,77.56297143743576,VALID,,33.74479321116677,28.710412476268207,38.99234457857295,34.80262532815478,18.64406779661017,1.0,7.0,31.596149999999163,0.0,VALID,,2652.540803153542,1248.836218250712,836.5345626941776,458.31773178913755,64.60463222393872,35.39536777606129,1.8252284488941608,0.5478766236664038,0.042152806419463486,373.98279772968414,277.23047611820243,0.21230289875956365,0.07421875,5.75860746734132,0.951879681665039,0.9244992655113913,0.9625423072074769,0.9270002220660173,0.9999191542232524,0.9993992035028564,VALID,0.0,0.0,0.0,0,4.5159299428734864e-05,4,2,18
1077697083,86.00683180934006,VALID,,28.81554195457017,24.438418854314975,32.70256825367218,43.262017091051604,10.16949152542373,1.0,7.0,31.596149999999163,0.0,VALID,,3026.470896674225,1425.7751679497055,940.6158862659304,538.8765123902451,63.576932677740885,36.42306732225912,1.745512867305585,0.572897524120589,0.042337643084396935,384.2133759275126,340.80603064442676,0.22775333054187233,0.07421875,5.875149852232325,0.9738801182869823,0.9430688341600328,0.9804708068833305,0.9585018448955036,0.9999269368110683,0.963413023527318,VALID,0.0,0.0,0.0,0,4.4314782672919974e-05,4,2,18
1097852492,71.40595954138333,VALID,,36.87900152652212,25.857927812148603,52.36241372629018,81.6432953069594,8.47457627118644,1.0,7.0,5.543749999999999,0.0,LIMITED,受限输出：频带一致性 85%,3099.230113375876,1364.5385735980221,1024.2685576356582,584.1864903849087,63.680272501004396,36.3197274989956,1.7533246223492576,0.5703450389352958,0.05695224495219037,411.69307852226143,376.19054615920294,0.2309028377897071,0.07421875,6.611000505934044,0.9191452254917893,0.8851863871891259,0.9486703870490809,0.850253181858109,0.9999034385336457,0.9184290831484698,LIMITED,0.0,0.0,0.0,0,4.350221861314927e-05,4,2,18
1118205435,76.44636523015453,VALID,,42.63641699497616,31.831392061226932,54.68927718857591,80.84743818066214,18.64406779661017,1.0,7.0,5.404349999999999,0.0,LIMITED,受限输出：Welch/Lomb 稳健一致性 90%；频带一致性 83%,2812.716169409296,1123.66422453837,1007.2798875085168,566.8615728023582,63.989159354813665,36.01084064518633,1.776941560051231,0.5627647090268793,0.062372040245159334,421.41522057895213,361.04658902339156,0.22638995833884593,0.07421875,5.83499940716125,0.8950251532272204,0.8059767890068251,0.9209997330401712,0.8344178003303351,0.9998286506773427,0.9988116672160978,LIMITED,0.0,0.0,0.0,0,4.269854824935952e-05,4,2,18
1138910945,73.93004738916038,VALID,,40.474969871535365,35.79529301063315,45.22440996378816,45.97371263885175,22.033898305084744,1.0,7.0,5.691599999999998,0.0,LIMITED,受限输出：Welch/Lomb 稳健一致性 89%；频带一致性 87%,2237.6988462870763,791.9542907441349,867.8413881095121,492.1108617623025,63.81410731084952,36.185892689150485,1.7635078912944082,0.5670516162340525,0.06704689588876606,389.0740491063916,297.61041318220117,0.21622790224950011,0.07421875,4.478272023719557,0.8911445329387411,0.7996531678071382,0.8989879766123678,0.8728431643669456,0.9997669431612963,0.9994154808464574,LIMITED,0.0,0.0,0.0,0,4.190383070852394e-05,4,2,18
1158940443,75.46514830788271,VALID,,38.32704139753206,31.46927575562755,42.5273274977012,41.49273477042133,16.94915254237288,1.0,7.0,6.353499999999999,0.0,LIMITED,受限输出：频带一致性 90%,1811.1061654594466,666.9113489103526,692.4056853647861,401.4249531657989,63.30099569115566,36.69900430884434,1.7248695675348429,0.5797539818788644,0.06425258039320972,331.05053972426464,226.57589618945718,0.20500839024881004,0.07421875,4.392007370169766,0.9016722131016599,0.7865258148443418,0.9029057979305015,0.8987938485010297,0.9997838859583383,0.9994191144174811,LIMITED,0.0,0.0,0.0,0,4.1177116503788295e-05,4,2,18
1179485529,70.92701610043265,VALID,,35.194028092701046,28.77016448834948,40.013559861962655,40.49831161865371,8.47457627118644,1.0,7.0,6.353499999999999,0.0,VALID,,1762.6264925021542,806.3242037017503,602.8301612295642,326.8525167253971,64.84257215113655,35.157427848863456,1.8443491494851416,0.5421966878013063,0.048869196539234494,298.49221568161295,196.0758875861951,0.20883835954402405,0.05078125,4.645004179619454,0.9681520002236326,0.8266672173510278,0.9723924539241953,0.9582576082556533,0.9998834366880498,0.9994227168980561,VALID,0.0,0.0,0.0,0,4.045662038878812e-05,4,2,18
1199743810,72.98781711685959,VALID,,36.49806488880087,30.758756068442516,42.53069961766667,36.44025278925261,15.254237288135593,1.0,7.0,307.00459999999987,0.0,VALID,,2266.8705620867795,1246.423656255236,703.2993835200186,288.3602639348452,70.92144823327904,29.078551766720967,2.438960812155896,0.4100106877551917,0.03395430623168413,350.08477658222193,247.17625354675027,0.2465242773927452,0.05078125,3.568047403213777,0.9785840820387601,0.8557683483932434,0.9842169193686843,0.965440794935604,0.999939237373128,0.9994261084886897,VALID,0.0,0.0,0.0,0,3.9778302262059455e-05,4,2,18
1220160163,72.1479899569998,VALID,,47.27835932547231,38.83831609279713,58.06953914386435,36.526767247350136,27.11864406779661,1.0,7.0,21.908149999999154,0.0,LIMITED,受限输出：频带一致性 85%,3146.359598116269,1837.6392271505938,970.803120184586,282.76585035137396,77.44313579886408,22.556864201135912,3.433240325796891,0.2912700263031804,0.03129497383576897,490.12739635609455,368.5287377010262,0.29078872886469614,0.0703125,3.2610223336178725,0.9306152411415161,0.7828489159474269,0.9641134004268137,0.8524528694758217,0.9999554714473405,0.999429472368687,LIMITED,0.0,0.0,0.0,0,3.9105526262619677e-05,4,2,18
1240324843,70.10164738871363,VALID,,48.91606475382091,40.855015079321625,58.89818628753358,39.26462745443169,30.508474576271187,1.0,7.0,21.354299999999153,0.0,LIMITED,受限输出：频带一致性 87%,3850.968698683671,2203.6504699380685,1265.8868659938637,294.374030232611,81.1330251918406,18.866974808159398,4.300266789816936,0.2325437115594799,0.03209753402853369,652.5305629447034,488.06549885178595,0.3100234313069794,0.0703125,3.445421371274511,0.9452172390421227,0.8579905593894996,0.9778135163603077,0.869159258633025,0.9999578301816815,0.9994327231212947,LIMITED,0.0,0.0,0.0,0,3.8455375741067136e-05,4,2,18
1260365075,74.70631081560614,VALID,,46.3840936676883,38.2640391247623,55.00953560896777,50.66518853881279,28.8135593220339,1.0,7.0,7.7017499999999295,0.0,VALID,,4005.5428073030525,2164.0177477759003,1427.5054388663104,310.71968714899816,82.12431275451131,17.875687245488685,4.5941905128843175,0.2176662019556045,0.03486133783295563,750.0207322607736,532.7842306192333,0.30449941994442664,0.0703125,3.2845769911168836,0.9349900885233979,0.7686513006140254,0.9497636555569453,0.9005184321117878,0.9999482257986171,0.9940357076379469,VALID,0.0,0.0,0.0,0,3.785847241063823e-05,4,2,18
1281086139,76.9748869431348,VALID,,41.0499316244605,35.77341171211838,46.00717385137854,70.6177530508061,32.20338983050847,1.0,7.0,5.8441,0.0,VALID,,3494.01895750101,1693.5253897027508,1379.275644027262,325.5003603072162,80.90656136174987,19.093438638250145,4.23740128190784,0.23599369837113035,0.04142359907380978,736.3775413563936,483.89281750692714,0.2826462852210097,0.07421875,4.547941210986103,0.9282691687267081,0.7092345883751966,0.9376747207571501,0.9063228806556767,0.9998927127876174,0.9880418772286435,VALID,0.0,0.0,0.0,0,3.7232392181197645e-05,4,2,18
1301561204,77.94667667848425,VALID,,40.07404555446949,34.13895525945805,44.16326400775373,41.466148779507336,30.508474576271187,1.0,7.0,5.084949999999999,0.0,LIMITED,受限输出：Welch/Lomb 稳健一致性 87%；频带一致性 88%,2664.6589208760897,1107.909547426722,1149.6159043121174,337.70463591028624,77.2944280148388,22.705571985161196,3.4042052790105064,0.2937543179801037,0.06734639270418123,620.1472364957054,382.0916733563304,0.25629299120505017,0.07421875,4.871168715144563,0.8656770896755476,0.5501003977720069,0.8610957258291315,0.8763669386505184,0.9997945231574018,0.9598522727272727,LIMITED,0.0,0.0,0.0,0,3.665689149560117e-05,4,2,18
1321893251,74.12266559930028,VALID,,41.448694751177285,35.42309999329304,48.75142076855042,39.45376122151466,28.8135593220339,1.0,7.0,22.203949999999054,0.0,INVALID,VLF/LF/HF 频带一致性 80% < 82%,nan,nan,nan,nan,nan,nan,nan,nan,nan,nan,nan,nan,nan,nan,0.8327469013625566,0.5187258171712601,0.8455449748363258,0.8028847299237617,0.9995644884231707,0.9425195814289151,LIMITED,0.0,0.0,0.0,0,3.60837142169834e-05,4,2,18
1342185736,76.38291263322454,VALID,,40.34132532758983,34.875462773783944,46.976061417680704,46.34081649072574,32.20338983050847,1.0,7.0,339.45165,0.0,INVALID,VLF/LF/HF 频带一致性 80% < 82%,nan,nan,nan,nan,nan,nan,nan,nan,nan,nan,nan,nan,nan,nan,0.8691484467450016,0.7512761339030808,0.8979768694006116,0.801882127215245,0.999194137607156,0.9017223632789371,LIMITED,0.0,0.0,0.0,0,3.552734421259563e-05,4,2,18
1362197445,75.47891370747392,VALID,,41.23229529328367,35.686628272886054,47.32173534226345,47.851562151958724,32.20338983050847,1.0,7.0,52.019349999999264,0.0,LIMITED,受限输出：Welch/Lomb 稳健一致性 85%,1592.7783812474331,689.1073666644226,490.98926510272133,397.79022414805644,55.2430913450326,44.75690865496741,1.234291934031985,0.8101811025640928,0.07097475329404164,259.09437184474916,230.14414268232227,0.2584832730981345,0.09375,9.985265893028277,0.8504705847499785,0.7425672452028143,0.8277332309966755,0.9035244101743524,0.9995379569861286,0.8800818207192648,LIMITED,0.0,0.0,0.0,0,3.5002158466438764e-05,4,2,18
1382393625,72.6715138566409,VALID,,43.289157441949584,37.95639280287484,48.53319508835328,43.27879448380872,32.20338983050847,1.0,7.0,20.37579999999917,0.0,LIMITED,受限输出：Welch/Lomb 稳健一致性 88%；频带一致性 86%,2024.163523525772,1148.5969208496153,441.8375846186164,422.58512460655373,51.11360216515597,48.88639783484404,1.0455587735843461,0.9564263867939597,0.02781494148049818,236.88234313057387,238.14479604891972,0.27470349368731295,0.09375,12.60296682764958,0.8825001193398099,0.7224695611143022,0.8912206703792925,0.8621521669143504,0.999745765839296,0.9718598946863188,LIMITED,0.0,0.0,0.0,0,3.449267030755964e-05,4,2,18
1402493593,75.67864827843688,VALID,,42.035797896917686,35.854904246325994,48.28706956765051,32.94742143268996,22.033898305084744,1.0,7.0,4.593849999999997,0.0,INVALID,VLF/LF/HF 频带一致性 77% < 82%,nan,nan,nan,nan,nan,nan,nan,nan,nan,nan,nan,nan,nan,nan,0.8802578397368646,0.831845519080209,0.9276585804871939,0.7696561113194298,0.9998326170391463,0.9124850119558257,LIMITED,0.0,0.0,0.0,0,3.3997608834845285e-05,4,2,18
1423132538,84.94396529755872,INVALID,SQI 58% < 70%,nan,nan,nan,nan,nan,1.0,7.0,293.1767499999999,0.0,INVALID,VLF/LF/HF 频带一致性 76% < 82%,nan,nan,nan,nan,nan,nan,nan,nan,nan,nan,nan,nan,nan,nan,0.836725263940928,0.7280621353282489,0.869664669921489,0.7598666499862856,0.9998390973479415,0.5784657935984929,INVALID,0.0,0.0,0.0,0,3.350794696808927e-05,4,2,18
1443540928,73.07564425314865,INVALID,SQI 66% < 70%,nan,nan,nan,nan,nan,1.0,7.0,293.1767499999999,0.0,LIMITED,受限输出：Welch/Lomb 稳健一致性 89%；频带一致性 83%,2830.154804815113,1835.5449468759796,547.3536881776151,435.7490520614223,55.676143069698725,44.32385693030127,1.2561213514710328,0.7961014266885192,0.02580281035891642,267.5449452624545,221.63523890003805,0.22426378456340665,0.0625,4.728887690391352,0.8876657677409956,0.6875037137569011,0.9144958480142678,0.8250622471033611,0.9998343078970865,0.6605932360084604,INVALID,0.0,0.0,0.0,0,3.3019464974602526e-05,4,2,18
1463850911,73.8563346578236,VALID,,38.65239486715024,32.120494274924226,45.131118237173865,50.47776533164713,23.728813559322035,1.0,7.0,5.087349999999999,0.0,LIMITED,受限输出：频带一致性 85%,2550.0416224459727,1458.804270666803,653.746630947891,424.26998104731064,60.643465385744996,39.356534614255004,1.5408741135399615,0.6489822829865236,0.031233514608256952,253.34257104040688,178.99325775015913,0.16509935600765854,0.0625,9.874147516923198,0.9171746341405158,0.7549318939625613,0.9458154718306216,0.8503460128636026,0.9997856439015627,0.9652621450440523,LIMITED,0.0,0.0,0.0,0,3.2570991189546884e-05,4,2,18
1484087374,73.50184857149156,VALID,,39.03206005910561,33.63760581667324,46.03631651333334,45.0928664540736,20.33898305084746,1.0,7.0,4.871349999999999,0.0,VALID,,2162.7458453349063,970.7794893218775,762.9053350658198,413.251784150867,64.86423646986127,35.13576353013874,1.846102943350642,0.5416816021023285,0.05145818423799795,223.7283398808732,129.95582539618326,0.109841190957591,0.05859375,16.67680785562979,0.9724912772843903,0.7479053269791086,0.9705253969296678,0.9770783314454096,0.9996814607301223,0.9412799059731505,VALID,0.0,0.0,0.0,0,3.212197785724993e-05,4,2,18
1504849777,72.2449392420061,VALID,,38.77547556932241,32.823266848111516,44.063743286435525,49.856004259190016,22.033898305084744,1.0,7.0,4.888549999999999,0.0,INVALID,Welch/Lomb 稳健一致性 79% < 80%,nan,nan,nan,nan,nan,nan,nan,nan,nan,nan,nan,nan,nan,nan,0.7869121100652143,0.6288579442413551,0.7619817166270259,0.8450830280876542,0.9995455323171963,0.9670666293175807,LIMITED,0.0,0.0,0.0,0,3.167413648385411e-05,4,2,18
1525090763,71.36239130615775,VALID,,36.889104937200585,32.643493614875744,42.016539874870645,41.46590898487685,16.94915254237288,1.0,7.0,4.577999999999999,0.0,INVALID,Welch/Lomb 稳健一致性 63% < 80%；VLF/LF/HF 频带一致性 73% < 82%,nan,nan,nan,nan,nan,nan,nan,nan,nan,nan,nan,nan,nan,nan,0.6278820910185594,0.564546186466223,0.5859802896510411,0.7256529608761021,0.9995426191656334,0.9796740302199626,LIMITED,0.0,0.0,0.0,0,3.124967448255747e-05,4,2,18
1550338625,73.87925175093827,VALID,,36.26842040529081,31.159537543664314,41.22805533419658,36.578935020298346,16.94915254237288,1.0,7.0,4.82705,0.0,INVALID,Welch/Lomb 稳健一致性 65% < 80%；VLF/LF/HF 频带一致性 72% < 82%,nan,nan,nan,nan,nan,nan,nan,nan,nan,nan,nan,nan,nan,nan,0.6545403379505657,0.5850148457969627,0.6252572809251086,0.7228674710099657,0.999537602908697,0.9406862690505887,LIMITED,0.0,0.0,0.0,0,3.088135383855228e-05,4,2,18
