seq,t_us,raw,avg,filtered,candidate,detector_score,expected_rr_ms,hr_bpm,flags
154974,1240346623,412.0,445.0,281.0,0,0.738,796.8,74.3,17
154975,1240354622,392.0,432.0,273.0,0,0.756,796.8,74.3,17
154976,1240362625,372.0,418.0,262.0,0,0.782,796.8,74.3,17
154977,1240370625,352.0,402.0,250.0,0,0.783,796.8,74.3,17
154978,1240378625,328.0,384.0,235.0,0,0.8,796.8,74.3,17
154979,1240386623,308.0,365.0,219.0,0,0.794,796.8,74.3,17
154980,1240394621,287.0,346.0,202.0,0,0.784,796.8,74.3,17
154981,1240402622,268.0,327.0,184.0,0,0.771,796.8,74.3,17
154982,1240410623,244.0,307.0,165.0,0,0.754,796.8,74.3,17
154983,1240418625,224.0,287.0,146.0,0,0.728,796.8,74.3,17
154984,1240426625,206.0,267.0,126.0,0,0.704,796.8,74.3,17
154985,1240434625,188.0,248.0,107.0,0,0.668,796.8,74.3,17
154986,1240442625,170.0,229.0,87.0,0,0.643,796.8,74.3,17
154987,1240450625,157.0,212.0,68.0,0,0.605,796.8,74.3,17
154988,1240458622,144.0,195.0,50.0,0,0.569,796.8,74.3,17
154989,1240466625,135.0,181.0,33.0,0,0.535,796.8,74.3,17
154990,1240474622,122.0,166.0,16.0,0,0.51,796.8,74.3,17
154991,1240482625,111.0,153.0,1.0,0,0.475,796.8,74.3,17
154992,1240490625,108.0,142.0,-13.0,0,0.485,796.8,74.3,17
154993,1240498620,104.0,133.0,-26.0,0,0.493,796.8,74.3,17
154994,1240506624,98.0,124.0,-37.0,0,0.489,796.8,74.3,17
154995,1240514621,96.0,118.0,-47.0,0,0.494,796.8,74.3,17
154996,1240522625,91.0,111.0,-55.0,0,0.484,796.8,74.3,17
154997,1240530625,90.0,106.0,-63.0,0,0.496,796.8,74.3,17
154998,1240538624,84.0,101.0,-70.0,0,0.496,796.8,74.3,17
154999,1240546623,84.0,97.0,-76.0,0,0.494,796.8,74.3,17
155000,1240554624,80.0,93.0,-81.0,0,0.491,796.8,74.3,17
155001,1240562625,78.0,89.0,-85.0,0,0.486,796.8,74.3,17
155002,1240570625,76.0,86.0,-89.0,0,0.492,796.8,74.3,17
155003,1240578625,69.0,82.0,-93.0,0,0.499,796.8,74.3,17
155004,1240586620,70.0,79.0,-96.0,0,0.492,796.8,74.3,17
155005,1240594625,68.0,76.0,-99.0,0,0.497,796.8,74.3,17
155006,1240602621,65.0,74.0,-102.0,0,0.502,796.8,74.3,17
155007,1240610625,61.0,71.0,-104.0,0,0.494,796.8,74.3,17
155008,1240618625,59.0,68.0,-107.0,0,0.51,796.8,74.3,17
155009,1240626621,59.0,66.0,-109.0,0,0.502,796.8,74.3,17
155010,1240634623,52.0,62.0,-111.0,0,0.505,796.8,74.3,17
155011,1240642621,52.0,60.0,-113.0,0,0.508,796.8,74.3,17
155012,1240650625,52.0,58.0,-115.0,0,0.511,796.8,74.3,17
155013,1240658625,50.0,56.0,-117.0,0,0.514,796.8,74.3,17
155014,1240666625,51.0,55.0,-118.0,0,0.505,796.8,74.3,17
155015,1240674625,47.0,53.0,-119.0,0,0.507,796.8,74.3,17
155016,1240682623,45.0,51.0,-120.0,0,0.508,796.8,74.3,17
155017,1240690623,43.0,49.0,-121.0,0,0.51,796.8,74.3,17
155018,1240698625,44.0,48.0,-122.0,0,0.511,796.8,74.3,17
155019,1240706625,44.0,47.0,-123.0,0,0.513,796.8,74.3,17
155020,1240714621,44.0,46.0,-123.0,1,0.502,796.8,74.3,17
155021,1240722628,44.0,46.0,-124.0,0,0.514,796.8,74.3,17
155022,1240730625,45.0,46.0,-124.0,1,0.504,796.8,74.3,17
155023,1240738625,42.0,45.0,-124.0,0,0.504,796.8,74.3,17
155024,1240746624,43.0,44.0,-124.0,0,0.504,796.8,74.3,17
155025,1240754624,47.0,45.0,-123.0,0,0.512,796.8,74.3,17
155026,1240762625,47.0,45.0,-122.0,0,0.511,796.8,74.3,17
155027,1240770625,48.0,46.0,-121.0,0,0.509,796.8,74.3,17
155028,1240778625,50.0,47.0,-120.0,0,0.507,796.8,74.3,17
155029,1240786625,55.0,49.0,-119.0,0,0.506,796.8,74.3,17
155030,1240794622,60.0,52.0,-116.0,0,0.522,796.8,74.3,17
155031,1240802625,63.0,54.0,-114.0,0,0.508,796.8,74.3,17
155032,1240810625,64.0,57.0,-111.0,0,0.515,796.8,74.3,17
155033,1240818625,65.0,59.0,-109.0,0,0.5,796.8,74.3,17
155034,1240826621,69.0,61.0,-106.0,0,0.507,796.8,74.3,17
155035,1240834625,68.0,63.0,-103.0,0,0.502,796.8,74.3,17
155036,1240842625,73.0,65.0,-100.0,0,0.497,796.8,74.3,17
155037,1240850625,73.0,67.0,-98.0,0,0.483,796.8,74.3,17
155038,1240858625,76.0,69.0,-95.0,0,0.489,796.8,74.3,17
155039,1240866621,84.0,73.0,-92.0,0,0.484,796.8,74.3,17
155040,1240874623,85.0,76.0,-89.0,0,0.479,796.8,74.3,17
155041,1240882625,87.0,79.0,-85.0,0,0.484,796.8,74.3,17
155042,1240890625,89.0,81.0,-82.0,0,0.468,796.8,74.3,17
155043,1240898625,92.0,84.0,-79.0,0,0.463,796.8,74.3,17
155044,1240906621,95.0,86.0,-76.0,0,0.458,796.8,74.3,17
155045,1240914623,92.0,88.0,-73.0,0,0.453,796.8,74.3,17
155046,1240922625,95.0,90.0,-71.0,0,0.439,796.8,74.3,17
155047,1240930625,103.0,93.0,-68.0,0,0.445,796.8,74.3,17
155048,1240938625,104.0,96.0,-65.0,0,0.44,796.8,74.3,17
155049,1240946625,104.0,98.0,-62.0,0,0.435,796.8,74.3,17
155050,1240954625,105.0,99.0,-59.0,0,0.43,796.8,74.3,17
155051,1240962625,106.0,101.0,-57.0,0,0.416,796.8,74.3,17
155052,1240970624,106.0,102.0,-55.0,0,0.413,796.8,74.3,17
155053,1240978625,113.0,105.0,-52.0,0,0.419,796.8,74.3,17
155054,1240986623,111.0,106.0,-50.0,0,0.405,796.8,74.3,17
155055,1240994625,119.0,109.0,-48.0,0,0.402,796.8,74.3,17
155056,1241002625,127.0,114.0,-44.0,0,0.418,796.8,74.3,17
155057,1241010625,139.0,120.0,-40.0,0,0.411,796.8,74.3,17
155058,1241018623,148.0,127.0,-36.0,0,0.405,796.8,74.3,17
155059,1241026625,168.0,137.0,-29.0,0,0.43,796.8,74.3,17
155060,1241034623,191.0,150.0,-21.0,0,0.43,796.8,74.3,17
155061,1241042622,216.0,166.0,-10.0,0,0.448,796.8,74.3,17
155062,1241050625,243.0,185.0,2.0,0,0.453,796.8,74.3,17
155063,1241058625,273.0,206.0,18.0,0,0.515,796.8,74.3,17
155064,1241066624,306.0,230.0,35.0,0,0.55,796.8,74.3,17
155065,1241074625,334.0,255.0,55.0,0,0.603,796.8,74.3,17
155066,1241082624,364.0,282.0,76.0,0,0.643,796.8,74.3,17
155067,1241090625,391.0,308.0,98.0,0,0.684,796.8,74.3,17
155068,1241098622,413.0,334.0,121.0,0,0.726,796.8,74.3,17
155069,1241106625,433.0,358.0,144.0,0,0.76,796.8,74.3,17
155070,1241114625,451.0,380.0,167.0,0,0.791,796.8,74.3,17
155071,1241122621,462.0,400.0,188.0,0,0.805,796.8,74.3,17
155072,1241130625,469.0,417.0,207.0,0,0.812,796.8,74.3,17
155073,1241138621,469.0,429.0,224.0,0,0.813,796.8,74.3,17
155074,1241146623,471.0,440.0,239.0,0,0.808,796.8,74.3,17
155075,1241154625,470.0,447.0,251.0,0,0.788,796.8,74.3,17
155076,1241162625,463.0,451.0,260.0,0,0.762,796.8,74.3,17
155077,1241170625,447.0,450.0,265.0,0,0.719,796.8,74.3,17
155078,1241178625,439.0,447.0,268.0,0,0.699,796.8,74.3,17
155079,1241186625,425.0,442.0,268.0,1,0.666,796.8,74.3,17
155080,1241194622,407.0,433.0,265.0,0,0.695,796.8,74.3,17
155081,1241202625,390.0,423.0,260.0,0,0.714,796.8,74.3,17
155082,1241210625,370.0,410.0,251.0,0,0.752,796.8,74.3,17
155083,1241218625,354.0,396.0,241.0,0,0.755,796.8,74.3,17
155084,1241226625,328.0,380.0,229.0,0,0.766,796.8,74.3,17
155085,1241234625,308.0,362.0,215.0,0,0.772,796.8,74.3,17
155086,1241242625,290.0,345.0,200.0,0,0.765,796.8,74.3,17
155087,1241250625,262.0,325.0,183.0,0,0.762,796.8,74.3,17
155088,1241258625,241.0,304.0,164.0,0,0.753,796.8,74.3,17
155089,1241266625,224.0,285.0,146.0,0,0.72,796.8,74.3,17
155090,1241274623,202.0,265.0,126.0,0,0.704,796.8,74.3,17
155091,1241282625,187.0,246.0,107.0,0,0.667,796.8,74.3,17
155092,1241290620,170.0,228.0,88.0,0,0.637,796.8,74.3,17
155093,1241298620,155.0,210.0,69.0,0,0.606,796.8,74.3,17
155094,1241306625,138.0,193.0,51.0,0,0.571,796.8,74.3,17
155095,1241314621,127.0,177.0,33.0,0,0.543,796.8,74.3,17
155096,1241322625,117.0,162.0,17.0,0,0.503,796.8,74.3,17
155097,1241330622,110.0,150.0,1.0,0,0.482,796.8,74.3,17
155098,1241338625,103.0,138.0,-13.0,0,0.482,796.8,74.3,17
155099,1241346624,100.0,129.0,-26.0,0,0.491,796.8,74.3,17
155100,1241354625,95.0,121.0,-37.0,0,0.487,796.8,74.3,17
155101,1241362625,94.0,114.0,-47.0,0,0.491,796.8,74.3,17
155102,1241370625,95.0,110.0,-55.0,0,0.481,796.8,74.3,17
155103,1241378622,96.0,106.0,-62.0,0,0.481,796.8,74.3,17
155104,1241386625,97.0,104.0,-67.0,0,0.466,796.8,74.3,17
155105,1241394625,95.0,102.0,-71.0,0,0.461,796.8,74.3,17
155106,1241402622,97.0,101.0,-74.0,0,0.455,796.8,74.3,17
155107,1241410625,98.0,100.0,-76.0,0,0.447,796.8,74.3,17
155108,1241418625,101.0,100.0,-78.0,0,0.451,796.8,74.3,17
155109,1241426622,95.0,99.0,-79.0,0,0.442,796.8,74.3,17
155110,1241434625,93.0,98.0,-80.0,0,0.443,796.8,74.3,17
155111,1241442625,95.0,97.0,-81.0,0,0.445,796.8,74.3,17
155112,1241450625,92.0,96.0,-82.0,0,0.447,796.8,74.3,17
155113,1241458624,92.0,95.0,-83.0,0,0.448,796.8,74.3,17
155114,1241466625,86.0,93.0,-83.0,1,0.438,796.8,74.3,17
155115,1241474625,85.0,91.0,-84.0,0,0.45,796.8,74.3,17
155116,1241482623,83.0,89.0,-86.0,0,0.464,796.8,74.3,17
155117,1241490625,78.0,86.0,-87.0,0,0.455,796.8,74.3,17
155118,1241498620,79.0,85.0,-88.0,0,0.457,796.8,74.3,17
155119,1241506625,76.0,82.0,-90.0,0,0.47,796.8,74.3,17
155120,1241514625,72.0,80.0,-91.0,0,0.461,796.8,74.3,17
155121,1241522625,65.0,76.0,-93.0,0,0.475,796.8,74.3,17
155122,1241530625,67.0,74.0,-95.0,0,0.478,796.8,74.3,17
155123,1241538623,67.0,72.0,-96.0,0,0.47,796.8,74.3,17
155124,1241546625,66.0,71.0,-98.0,0,0.483,796.8,74.3,17
155125,1241554625,65.0,69.0,-99.0,0,0.474,796.8,74.3,17
155126,1241562625,63.0,68.0,-100.0,0,0.476,796.8,74.3,17
155127,1241570620,62.0,66.0,-101.0,0,0.477,796.8,74.3,17
155128,1241578625,65.0,66.0,-102.0,0,0.479,796.8,74.3,17
155129,1241586623,64.0,66.0,-102.0,1,0.469,796.8,74.3,17
155130,1241594622,64.0,65.0,-102.0,0,0.469,796.8,74.3,17
155131,1241602625,66.0,65.0,-102.0,0,0.469,796.8,74.3,17
155132,1241610621,67.0,66.0,-102.0,0,0.469,796.8,74.3,17
155133,1241618621,68.0,66.0,-101.0,0,0.477,796.8,74.3,17
155134,1241626625,68.0,67.0,-100.0,0,0.476,796.8,74.3,17
155135,1241634624,68.0,67.0,-100.0,1,0.466,796.8,74.3,17
155136,1241642625,69.0,68.0,-99.0,0,0.474,796.8,74.3,17
155137,1241650625,70.0,68.0,-98.0,0,0.473,796.8,74.3,17
155138,1241658620,72.0,69.0,-97.0,0,0.471,796.8,74.3,17
155139,1241666620,75.0,70.0,-95.0,0,0.478,796.8,74.3,17
155140,1241674625,73.0,71.0,-94.0,0,0.466,796.8,74.3,17
155141,1241682625,76.0,72.0,-92.0,0,0.473,796.8,74.3,17
155142,1241690625,76.0,73.0,-91.0,0,0.461,796.8,74.3,17
155143,1241698625,77.0,74.0,-89.0,0,0.468,796.8,74.3,17
155144,1241706625,79.0,75.0,-88.0,0,0.456,796.8,74.3,17
155145,1241714625,84.0,77.0,-86.0,0,0.463,796.8,74.3,17
155146,1241722625,84.0,79.0,-84.0,0,0.46,796.8,74.3,17
155147,1241730625,88.0,81.0,-82.0,0,0.457,796.8,74.3,17
155148,1241738625,91.0,84.0,-79.0,0,0.463,796.8,74.3,17
155149,1241746625,92.0,86.0,-77.0,0,0.449,796.8,74.3,17
155150,1241754625,97.0,88.0,-74.0,0,0.455,796.8,74.3,17
155151,1241762623,97.0,90.0,-72.0,0,0.441,796.8,74.3,17
155152,1241770625,98.0,92.0,-69.0,0,0.446,796.8,74.3,17
155153,1241778621,102.0,95.0,-67.0,0,0.432,796.8,74.3,17
155154,1241786625,106.0,97.0,-64.0,0,0.438,796.8,74.3,17
155155,1241794625,108.0,100.0,-61.0,0,0.434,796.8,74.3,17
155156,1241802621,105.0,101.0,-59.0,0,0.42,796.8,74.3,17
155157,1241810625,109.0,103.0,-56.0,0,0.426,796.8,74.3,17
155158,1241818622,115.0,106.0,-54.0,0,0.412,796.8,74.3,17
155159,1241826625,116.0,108.0,-51.0,0,0.418,796.8,74.3,17
155160,1241834625,117.0,110.0,-49.0,0,0.404,796.8,74.3,17
155161,1241842625,116.0,112.0,-46.0,0,0.41,796.8,74.3,17
155162,1241850624,119.0,114.0,-44.0,0,0.396,796.8,74.3,17
155163,1241858625,120.0,115.0,-42.0,0,0.393,796.8,74.3,17
155164,1241866623,122.0,117.0,-40.0,0,0.389,796.8,74.3,17
155165,1241874625,124.0,119.0,-38.0,0,0.386,796.8,74.3,17
155166,1241882624,124.0,120.0,-36.0,0,0.383,796.8,74.3,17
155167,1241890625,127.0,122.0,-34.0,0,0.38,796.8,74.3,17
155168,1241898622,136.0,125.0,-32.0,0,0.376,796.8,74.3,17
155169,1241906621,141.0,129.0,-29.0,0,0.383,796.8,74.3,17
155170,1241914624,152.0,135.0,-25.0,0,0.388,796.8,74.3,17
155171,1241922625,168.0,143.0,-20.0,0,0.392,796.8,74.3,17
155172,1241930624,191.0,154.0,-13.0,0,0.406,796.8,74.3,17
155173,1241938622,214.0,169.0,-4.0,0,0.418,796.8,74.3,17
155174,1241946625,241.0,186.0,7.0,0,0.456,796.8,74.3,17
155175,1241954625,271.0,207.0,21.0,0,0.509,796.8,74.3,17
155176,1241962624,302.0,230.0,37.0,0,0.553,796.8,74.3,17
155177,1241970625,338.0,256.0,56.0,0,0.607,796.8,74.3,17
155178,1241978625,372.0,284.0,78.0,0,0.663,796.8,74.3,17
155179,1241986625,402.0,313.0,101.0,0,0.706,796.8,74.3,17
155180,1241994625,428.0,341.0,125.0,0,0.75,796.8,74.3,17
155181,1242002621,456.0,369.0,150.0,0,0.791,796.8,74.3,17
155182,1242010625,473.0,394.0,174.0,0,0.819,796.8,74.3,17
155183,1242018624,492.0,418.0,198.0,0,0.846,796.8,74.3,17
155184,1242026625,505.0,439.0,220.0,0,0.856,796.8,74.3,17
155185,1242034624,515.0,457.0,241.0,0,0.867,796.8,74.3,17
155186,1242042625,515.0,471.0,259.0,0,0.858,796.8,74.3,17
155187,1242050625,518.0,483.0,275.0,0,0.851,796.8,74.3,17
155188,1242058625,511.0,490.0,288.0,0,0.829,796.8,74.3,17
155189,1242066624,506.0,494.0,297.0,0,0.79,796.8,74.3,17
155190,1242074624,496.0,494.0,304.0,0,0.77,796.8,74.3,17
155191,1242082625,487.0,492.0,307.0,0,0.725,796.8,74.3,17
155192,1242090625,472.0,487.0,307.0,1,0.692,796.8,74.3,17
155193,1242098625,454.0,479.0,305.0,0,0.712,796.8,74.3,17
155194,1242106625,435.0,469.0,299.0,0,0.754,796.8,74.3,17
155195,1242114623,418.0,456.0,292.0,0,0.761,796.8,74.3,17
155196,1242122623,402.0,443.0,282.0,0,0.79,796.8,74.3,17
155197,1242130625,379.0,428.0,270.0,0,0.804,796.8,74.3,17
155198,1242138624,361.0,411.0,256.0,0,0.814,796.8,74.3,17
155199,1242146621,338.0,394.0,241.0,0,0.811,796.8,74.3,17
155200,1242154625,314.0,374.0,224.0,0,0.812,796.8,74.3,17
155201,1242162622,293.0,355.0,206.0,0,0.801,796.8,74.3,17
155202,1242170625,274.0,335.0,188.0,0,0.779,796.8,74.3,17
155203,1242178624,249.0,314.0,168.0,0,0.767,796.8,74.3,17
155204,1242186621,231.0,294.0,148.0,0,0.739,796.8,74.3,17
155205,1242194625,212.0,274.0,128.0,0,0.709,796.8,74.3,17
155206,1242202623,192.0,254.0,108.0,0,0.677,796.8,74.3,17
155207,1242210625,173.0,235.0,88.0,0,0.645,796.8,74.3,17
155208,1242218621,161.0,217.0,69.0,0,0.607,796.8,74.3,17
155209,1242226625,149.0,200.0,50.0,0,0.577,796.8,74.3,17
155210,1242234625,136.0,185.0,32.0,0,0.541,796.8,74.3,17
155211,1242242623,125.0,170.0,16.0,0,0.502,796.8,74.3,17
155212,1242250625,119.0,158.0,0.0,0,0.486,796.8,74.3,17
155213,1242258624,115.0,147.0,-14.0,0,0.487,796.8,74.3,17
155214,1242266625,106.0,137.0,-26.0,0,0.484,796.8,74.3,17
155215,1242274624,104.0,129.0,-38.0,0,0.502,796.8,74.3,17
155216,1242282625,99.0,122.0,-48.0,0,0.496,796.8,74.3,17
155217,1242290625,95.0,115.0,-56.0,0,0.487,796.8,74.3,17
155218,1242298625,92.0,110.0,-64.0,0,0.499,796.8,74.3,17
155219,1242306625,88.0,104.0,-71.0,0,0.499,796.8,74.3,17
155220,1242314625,80.0,99.0,-78.0,0,0.511,796.8,74.3,17
155221,1242322625,80.0,94.0,-83.0,0,0.496,796.8,74.3,17
155222,1242330625,70.0,88.0,-89.0,0,0.517,796.8,74.3,17
155223,1242338625,74.0,85.0,-94.0,0,0.514,796.8,74.3,17
155224,1242346620,65.0,80.0,-98.0,0,0.509,796.8,74.3,17
155225,1242354625,67.0,77.0,-102.0,0,0.516,796.8,74.3,17
155226,1242362621,63.0,73.0,-106.0,0,0.522,796.8,74.3,17
155227,1242370625,57.0,69.0,-109.0,0,0.516,796.8,74.3,17
155228,1242378622,54.0,66.0,-112.0,0,0.521,796.8,74.3,17
155229,1242386625,54.0,63.0,-115.0,0,0.525,796.8,74.3,17
155230,1242394620,50.0,60.0,-118.0,0,0.53,796.8,74.3,17
155231,1242402625,44.0,56.0,-121.0,0,0.535,796.8,74.3,17
155232,1242410621,42.0,53.0,-124.0,0,0.539,796.8,74.3,17
155233,1242418625,41.0,50.0,-126.0,0,0.531,796.8,74.3,17
155234,1242426622,39.0,47.0,-128.0,0,0.534,796.8,74.3,17
155235,1242434625,36.0,44.0,-131.0,0,0.55,796.8,74.3,17
155236,1242442622,35.0,42.0,-132.0,0,0.53,796.8,74.3,17
155237,1242450625,32.0,40.0,-134.0,0,0.543,796.8,74.3,17
155238,1242458621,30.0,37.0,-136.0,0,0.546,796.8,74.3,17
155239,1242466624,30.0,36.0,-137.0,0,0.537,796.8,74.3,17
155240,1242474625,36.0,36.0,-138.0,0,0.538,796.8,74.3,17
155241,1242482625,35.0,36.0,-138.0,1,0.528,796.8,74.3,17
155242,1242490625,31.0,34.0,-139.0,0,0.539,796.8,74.3,17
155243,1242498623,36.0,35.0,-139.0,1,0.529,796.8,74.3,17
155244,1242506625,36.0,35.0,-138.0,0,0.537,796.8,74.3,17
155245,1242514624,37.0,36.0,-137.0,0,0.536,796.8,74.3,17
155246,1242522621,40.0,37.0,-136.0,0,0.534,796.8,74.3,17
155247,1242530625,44.0,38.0,-135.0,0,0.532,796.8,74.3,17
155248,1242538625,44.0,40.0,-133.0,0,0.54,796.8,74.3,17
155249,1242546625,49.0,42.0,-131.0,0,0.536,796.8,74.3,17
155250,1242554621,52.0,44.0,-128.0,0,0.543,796.8,74.3,17
155251,1242562625,56.0,47.0,-126.0,0,0.529,796.8,74.3,17
155252,1242570625,60.0,50.0,-123.0,0,0.535,796.8,74.3,17
155253,1242578625,63.0,53.0,-119.0,0,0.539,796.8,74.3,17
155254,1242586621,68.0,57.0,-116.0,0,0.524,796.8,74.3,17
155255,1242594625,72.0,61.0,-112.0,0,0.528,796.8,74.3,17
155256,1242602625,73.0,64.0,-108.0,0,0.522,796.8,74.3,17
155257,1242610625,81.0,68.0,-104.0,0,0.516,796.8,74.3,17
155258,1242618625,80.0,71.0,-100.0,0,0.51,796.8,74.3,17
155259,1242626625,85.0,74.0,-96.0,0,0.503,796.8,74.3,17
155260,1242634623,86.0,77.0,-93.0,0,0.487,796.8,74.3,17
155261,1242642623,90.0,80.0,-89.0,0,0.492,796.8,74.3,17
155262,1242650620,93.0,83.0,-85.0,0,0.486,796.8,74.3,17
155263,1242658620,92.0,85.0,-82.0,0,0.47,796.8,74.3,17
155264,1242666625,96.0,88.0,-78.0,0,0.474,796.8,74.3,17
155265,1242674622,95.0,90.0,-75.0,0,0.459,796.8,74.3,17
155266,1242682621,102.0,93.0,-72.0,0,0.454,796.8,74.3,17
155267,1242690622,100.0,94.0,-69.0,0,0.449,796.8,74.3,17
155268,1242698625,101.0,96.0,-67.0,0,0.435,796.8,74.3,17
155269,1242706621,102.0,97.0,-64.0,0,0.441,796.8,74.3,17
155270,1242714625,105.0,99.0,-62.0,0,0.427,796.8,74.3,17
155271,1242722622,103.0,100.0,-60.0,0,0.424,796.8,74.3,17
155272,1242730623,107.0,102.0,-58.0,0,0.421,796.8,74.3,17
155273,1242738625,112.0,104.0,-56.0,0,0.418,796.8,74.3,17
155274,1242746625,110.0,106.0,-54.0,0,0.415,796.8,74.3,17
155275,1242754623,111.0,107.0,-52.0,0,0.411,796.8,74.3,17
155276,1242762625,109.0,107.0,-50.0,0,0.408,796.8,74.3,17
155277,1242770625,111.0,108.0,-49.0,0,0.396,796.8,74.3,17
155278,1242778625,114.0,110.0,-47.0,0,0.403,796.8,74.3,17
155279,1242786622,116.0,111.0,-46.0,0,0.39,796.8,74.3,17
155280,1242794625,116.0,112.0,-44.0,0,0.398,796.8,74.3,17
155281,1242802625,118.0,114.0,-42.0,0,0.394,796.8,74.3,17
155282,1242810625,127.0,117.0,-40.0,0,0.391,796.8,74.3,17
155283,1242818623,140.0,123.0,-37.0,0,0.397,796.8,74.3,17
155284,1242826621,156.0,131.0,-33.0,0,0.402,796.8,74.3,17
155285,1242834625,176.0,142.0,-26.0,0,0.428,796.8,74.3,17
155286,1242842623,197.0,155.0,-18.0,0,0.429,796.8,74.3,17
155287,1242850625,227.0,173.0,-7.0,0,0.448,796.8,74.3,17
155288,1242858625,254.0,192.0,7.0,0,0.49,796.8,74.3,17
155289,1242866625,292.0,216.0,23.0,0,0.533,796.8,74.3,17
155290,1242874625,324.0,243.0,42.0,0,0.587,796.8,74.3,17
155291,1242882625,362.0,271.0,64.0,0,0.641,796.8,74.3,17
155292,1242890625,391.0,300.0,87.0,0,0.685,796.8,74.3,17
155293,1242898625,421.0,330.0,112.0,0,0.736,796.8,74.3,17
155294,1242906625,450.0,359.0,137.0,0,0.775,796.8,74.3,17
155295,1242914625,471.0,386.0,163.0,0,0.815,796.8,74.3,17
155296,1242922625,490.0,411.0,188.0,0,0.841,796.8,74.3,17
155297,1242930621,500.0,433.0,212.0,0,0.861,796.8,74.3,17
155298,1242938625,508.0,451.0,233.0,0,0.862,796.8,74.3,17
155299,1242946625,520.0,468.0,253.0,0,0.869,796.8,74.3,17
155300,1242954625,520.0,480.0,270.0,0,0.857,796.8,74.3,17
155301,1242962623,518.0,490.0,284.0,0,0.837,796.8,74.3,17
155302,1242970625,516.0,496.0,295.0,0,0.811,796.8,74.3,17
155303,1242978625,508.0,499.0,303.0,0,0.781,796.8,74.3,17
155304,1242986620,501.0,499.0,309.0,0,0.759,796.8,74.3,17
155305,1242994625,489.0,497.0,311.0,0,0.713,796.8,74.3,17
155306,1243002625,476.0,492.0,311.0,1,0.691,796.8,74.3,17
155307,1243010621,463.0,485.0,308.0,0,0.721,796.8,74.3,17
155308,1243018624,448.0,476.0,303.0,0,0.741,796.8,74.3,17
155309,1243026625,428.0,464.0,296.0,0,0.76,796.8,74.3,17
155310,1243034625,409.0,451.0,286.0,0,0.788,796.8,74.3,17
155311,1243042625,383.0,434.0,274.0,0,0.802,796.8,74.3,17
155312,1243050625,368.0,418.0,261.0,0,0.802,796.8,74.3,17
155313,1243058625,340.0,399.0,245.0,0,0.816,796.8,74.3,17
155314,1243066625,318.0,380.0,228.0,0,0.808,796.8,74.3,17
155315,1243074620,292.0,358.0,209.0,0,0.802,796.8,74.3,17
155316,1243082625,268.0,336.0,190.0,0,0.779,796.8,74.3,17
155317,1243090625,248.0,315.0,169.0,0,0.764,796.8,74.3,17
155318,1243098620,223.0,293.0,148.0,0,0.734,796.8,74.3,17
155319,1243106625,202.0,271.0,126.0,0,0.707,796.8,74.3,17
155320,1243114625,183.0,249.0,105.0,0,0.668,796.8,74.3,17
155321,1243122620,166.0,229.0,83.0,0,0.638,796.8,74.3,17
155322,1243130625,151.0,210.0,63.0,0,0.594,796.8,74.3,17
155323,1243138622,140.0,193.0,43.0,0,0.564,796.8,74.3,17
155324,1243146625,126.0,177.0,25.0,0,0.523,796.8,74.3,17
155325,1243154625,113.0,161.0,7.0,0,0.498,796.8,74.3,17
155326,1243162622,108.0,148.0,-9.0,0,0.501,796.8,74.3,17
155327,1243170625,102.0,137.0,-24.0,0,0.513,796.8,74.3,17
155328,1243178625,96.0,127.0,-37.0,0,0.513,796.8,74.3,17
155329,1243186624,92.0,119.0,-49.0,0,0.521,796.8,74.3,17
155330,1243194625,88.0,111.0,-59.0,0,0.515,796.8,74.3,17
155331,1243202625,84.0,105.0,-68.0,0,0.518,796.8,74.3,17
155332,1243210625,81.0,99.0,-76.0,0,0.52,796.8,74.3,17
155333,1243218625,82.0,95.0,-83.0,0,0.52,796.8,74.3,17
155334,1243226625,75.0,90.0,-89.0,0,0.518,796.8,74.3,17
155335,1243234625,73.0,86.0,-94.0,0,0.515,796.8,74.3,17
155336,1243242625,69.0,82.0,-99.0,0,0.522,796.8,74.3,17
155337,1243250625,64.0,77.0,-103.0,0,0.518,796.8,74.3,17
155338,1243258625,60.0,73.0,-107.0,0,0.524,796.8,74.3,17
155339,1243266625,60.0,70.0,-111.0,0,0.53,796.8,74.3,17
155340,1243274625,55.0,66.0,-114.0,0,0.524,796.8,74.3,17
155341,1243282625,50.0,62.0,-117.0,0,0.528,796.8,74.3,17
155342,1243290625,45.0,58.0,-121.0,0,0.545,796.8,74.3,17
155343,1243298620,41.0,54.0,-124.0,0,0.538,796.8,74.3,17
155344,1243306623,33.0,49.0,-128.0,0,0.555,796.8,74.3,17
155345,1243314625,33.0,45.0,-131.0,0,0.548,796.8,74.3,17
155346,1243322628,31.0,42.0,-134.0,0,0.552,796.8,74.3,17
155347,1243330625,27.0,38.0,-137.0,0,0.556,796.8,74.3,17
155348,1243338625,26.0,35.0,-140.0,0,0.56,796.8,74.3,17
155349,1243346625,27.0,33.0,-142.0,0,0.552,796.8,74.3,17
155350,1243354625,22.0,30.0,-144.0,0,0.555,796.8,74.3,17
155351,1243362623,17.0,27.0,-146.0,0,0.557,796.8,74.3,17
155352,1243370625,23.0,26.0,-148.0,0,0.56,796.8,74.3,17
155353,1243378625,21.0,25.0,-149.0,0,0.551,796.8,74.3,17
155354,1243386625,19.0,23.0,-150.0,0,0.551,796.8,74.3,17
155355,1243394623,18.0,22.0,-151.0,0,0.552,796.8,74.3,17
155356,1243402622,21.0,22.0,-151.0,1,0.542,796.8,74.3,17
155357,1243410625,20.0,21.0,-151.0,0,0.542,796.8,74.3,17
155358,1243418625,23.0,22.0,-151.0,0,0.541,796.8,74.3,17
155359,1243426625,26.0,23.0,-150.0,0,0.549,796.8,74.3,17
155360,1243434625,24.0,23.0,-149.0,0,0.547,796.8,74.3,17
155361,1243442625,30.0,25.0,-147.0,0,0.555,796.8,74.3,17
155362,1243450625,32.0,27.0,-146.0,0,0.542,796.8,74.3,17
155363,1243458625,36.0,29.0,-144.0,0,0.549,796.8,74.3,17
155364,1243466625,36.0,31.0,-141.0,0,0.555,796.8,74.3,17
155365,1243474625,45.0,34.0,-138.0,0,0.551,796.8,74.3,17
155366,1243482625,45.0,37.0,-135.0,0,0.546,796.8,74.3,17
155367,1243490625,48.0,39.0,-132.0,0,0.541,796.8,74.3,17
155368,1243498625,54.0,43.0,-128.0,0,0.546,796.8,74.3,17
155369,1243506625,57.0,46.0,-125.0,0,0.531,796.8,74.3,17
155370,1243514625,62.0,50.0,-121.0,0,0.535,796.8,74.3,17
155371,1243522625,63.0,53.0,-117.0,0,0.529,796.8,74.3,17
155372,1243530625,66.0,56.0,-113.0,0,0.523,796.8,74.3,17
155373,1243538625,72.0,60.0,-109.0,0,0.516,796.8,74.3,17
155374,1243546625,80.0,65.0,-105.0,0,0.51,796.8,74.3,17
155375,1243554624,82.0,69.0,-100.0,0,0.513,796.8,74.3,17
155376,1243562625,86.0,73.0,-95.0,0,0.506,796.8,74.3,17
155377,1243570625,92.0,78.0,-91.0,0,0.488,796.8,74.3,17
155378,1243578620,96.0,82.0,-86.0,0,0.491,796.8,74.3,17
155379,1243586625,98.0,86.0,-81.0,0,0.484,796.8,74.3,17
155380,1243594625,101.0,90.0,-77.0,0,0.466,796.8,74.3,17
155381,1243602625,106.0,94.0,-72.0,0,0.47,796.8,74.3,17
155382,1243610621,108.0,97.0,-68.0,0,0.452,796.8,74.3,17
155383,1243618625,108.0,100.0,-64.0,0,0.446,796.8,74.3,17
155384,1243626624,116.0,104.0,-60.0,0,0.44,796.8,74.3,17
155385,1243634625,116.0,107.0,-56.0,0,0.434,796.8,74.3,17
155386,1243642625,123.0,111.0,-52.0,0,0.428,796.8,74.3,17
155387,1243650622,121.0,113.0,-49.0,0,0.412,796.8,74.3,17
155388,1243658623,124.0,116.0,-45.0,0,0.417,796.8,74.3,17
155389,1243666625,127.0,118.0,-42.0,0,0.401,796.8,74.3,17
155390,1243674625,127.0,121.0,-39.0,0,0.396,796.8,74.3,17
155391,1243682625,127.0,122.0,-37.0,0,0.382,796.8,74.3,17
155392,1243690625,132.0,125.0,-34.0,0,0.388,796.8,74.3,17
155393,1243698624,127.0,125.0,-32.0,0,0.373,796.8,74.3,17
155394,1243706621,132.0,127.0,-30.0,0,0.37,796.8,74.3,17
155395,1243714621,127.0,127.0,-28.0,0,0.366,796.8,74.3,17
155396,1243722623,130.0,128.0,-27.0,0,0.352,796.8,74.3,17
155397,1243730625,130.0,128.0,-26.0,0,0.35,796.8,74.3,17
155398,1243738625,132.0,129.0,-25.0,0,0.347,796.8,74.3,17
155399,1243746622,135.0,131.0,-23.0,0,0.355,796.8,74.3,17
155400,1243754624,142.0,133.0,-22.0,0,0.341,796.8,74.3,17
155401,1243762625,149.0,137.0,-19.0,0,0.358,796.8,74.3,17
155402,1243770625,162.0,143.0,-16.0,0,0.353,796.8,74.3,17
155403,1243778625,181.0,152.0,-11.0,0,0.369,796.8,74.3,17
155404,1243786625,200.0,164.0,-4.0,0,0.404,796.8,74.3,17
155405,1243794625,226.0,179.0,5.0,0,0.442,796.8,74.3,17
155406,1243802623,250.0,196.0,17.0,0,0.494,796.8,74.3,17
155407,1243810625,283.0,217.0,31.0,0,0.538,796.8,74.3,17
155408,1243818625,309.0,239.0,47.0,0,0.583,796.8,74.3,17
155409,1243826625,342.0,264.0,65.0,0,0.629,796.8,74.3,17
155410,1243834625,371.0,290.0,86.0,0,0.684,796.8,74.3,17
155411,1243842625,394.0,315.0,107.0,0,0.718,796.8,74.3,17
155412,1243850621,415.0,340.0,129.0,0,0.756,796.8,74.3,17
155413,1243858621,436.0,363.0,151.0,0,0.786,796.8,74.3,17
155414,1243866620,452.0,385.0,172.0,0,0.805,796.8,74.3,17
155415,1243874621,462.0,403.0,192.0,0,0.82,796.8,74.3,17
155416,1243882621,464.0,418.0,210.0,0,0.822,796.8,74.3,17
155417,1243890621,469.0,430.0,226.0,0,0.818,796.8,74.3,17
155418,1243898620,467.0,439.0,240.0,0,0.81,796.8,74.3,17
155419,1243906623,461.0,445.0,250.0,0,0.773,796.8,74.3,17
155420,1243914621,454.0,447.0,258.0,0,0.754,796.8,74.3,17
155421,1243922625,444.0,446.0,263.0,0,0.72,796.8,74.3,17
155422,1243930625,428.0,442.0,264.0,0,0.672,796.8,74.3,17
155423,1243938623,415.0,435.0,263.0,1,0.67,796.8,74.3,17
155424,1243946625,399.0,426.0,259.0,0,0.7,796.8,74.3,17
155425,1243954624,377.0,414.0,253.0,0,0.718,796.8,74.3,17
155426,1243962622,358.0,401.0,244.0,0,0.745,796.8,74.3,17
155427,1243970623,339.0,386.0,233.0,0,0.756,796.8,74.3,17
155428,1243978624,325.0,371.0,220.0,0,0.764,796.8,74.3,17
155429,1243986622,304.0,355.0,206.0,0,0.758,796.8,74.3,17
155430,1243994625,280.0,337.0,191.0,0,0.749,796.8,74.3,17
155431,1244002621,263.0,319.0,174.0,0,0.743,796.8,74.3,17
155432,1244010625,239.0,299.0,157.0,0,0.72,796.8,74.3,17
155433,1244018625,218.0,280.0,139.0,0,0.701,796.8,74.3,17
155434,1244026625,202.0,261.0,120.0,0,0.679,796.8,74.3,17
155435,1244034624,185.0,242.0,101.0,0,0.649,796.8,74.3,17
155436,1244042625,169.0,225.0,83.0,0,0.613,796.8,74.3,17
155437,1244050625,158.0,209.0,65.0,0,0.585,796.8,74.3,17
155438,1244058620,146.0,193.0,48.0,0,0.551,796.8,74.3,17
155439,1244066624,132.0,178.0,32.0,0,0.518,796.8,74.3,17
155440,1244074625,125.0,166.0,16.0,0,0.496,796.8,74.3,17
155441,1244082625,122.0,155.0,2.0,0,0.467,796.8,74.3,17
155442,1244090625,118.0,146.0,-10.0,0,0.463,796.8,74.3,17
155443,1244098623,113.0,138.0,-21.0,0,0.468,796.8,74.3,17
155444,1244106625,112.0,132.0,-31.0,0,0.472,796.8,74.3,17
155445,1244114624,109.0,126.0,-39.0,0,0.461,796.8,74.3,17
155446,1244122623,108.0,122.0,-46.0,0,0.461,796.8,74.3,17
155447,1244130625,104.0,117.0,-52.0,0,0.459,796.8,74.3,17
155448,1244138624,104.0,114.0,-58.0,0,0.468,796.8,74.3,17
155449,1244146625,102.0,111.0,-62.0,0,0.452,796.8,74.3,17
155450,1244154621,100.0,109.0,-66.0,0,0.458,796.8,74.3,17
155451,1244162625,106.0,108.0,-69.0,0,0.452,796.8,74.3,17
155452,1244170625,105.0,107.0,-71.0,0,0.444,796.8,74.3,17
155453,1244178625,102.0,106.0,-72.0,0,0.436,796.8,74.3,17
155454,1244186625,100.0,105.0,-74.0,0,0.449,796.8,74.3,17
155455,1244194625,100.0,103.0,-75.0,0,0.441,796.8,74.3,17
155456,1244202623,99.0,102.0,-76.0,0,0.442,796.8,74.3,17
155457,1244210625,92.0,100.0,-77.0,0,0.444,796.8,74.3,17
155458,1244218625,89.0,97.0,-79.0,0,0.458,796.8,74.3,17
155459,1244226621,86.0,94.0,-80.0,0,0.449,796.8,74.3,17
155460,1244234625,84.0,92.0,-82.0,0,0.462,796.8,74.3,17
155461,1244242625,80.0,89.0,-84.0,0,0.466,796.8,74.3,17
155462,1244250623,74.0,85.0,-86.0,0,0.469,796.8,74.3,17
155463,1244258621,75.0,83.0,-88.0,0,0.472,796.8,74.3,17
155464,1244266622,71.0,80.0,-91.0,0,0.487,796.8,74.3,17
155465,1244274625,68.0,77.0,-93.0,0,0.479,796.8,74.3,17
155466,1244282625,67.0,75.0,-95.0,0,0.482,796.8,74.3,17
155467,1244290625,64.0,72.0,-97.0,0,0.485,796.8,74.3,17
155468,1244298625,60.0,69.0,-99.0,0,0.488,796.8,74.3,17
155469,1244306625,60.0,67.0,-101.0,0,0.491,796.8,74.3,17
155470,1244314625,60.0,65.0,-103.0,0,0.494,796.8,74.3,17
155471,1244322625,59.0,64.0,-104.0,0,0.485,796.8,74.3,17
155472,1244330625,59.0,63.0,-105.0,0,0.486,796.8,74.3,17
155473,1244338625,63.0,63.0,-106.0,0,0.487,796.8,74.3,17
155474,1244346621,63.0,63.0,-106.0,1,0.477,796.8,74.3,17
155475,1244354625,61.0,62.0,-106.0,0,0.476,796.8,74.3,17
155476,1244362625,64.0,63.0,-106.0,0,0.476,796.8,74.3,17
155477,1244370623,64.0,63.0,-105.0,0,0.484,796.8,74.3,17
155478,1244378625,65.0,64.0,-105.0,1,0.474,796.8,74.3,17
155479,1244386625,66.0,64.0,-104.0,0,0.482,796.8,74.3,17
155480,1244394625,71.0,66.0,-102.0,0,0.489,796.8,74.3,17
155481,1244402625,72.0,67.0,-101.0,0,0.477,796.8,74.3,17
155482,1244410625,72.0,68.0,-99.0,0,0.484,796.8,74.3,17
155483,1244418621,78.0,71.0,-97.0,0,0.481,796.8,74.3,17
155484,1244426625,82.0,73.0,-95.0,0,0.477,796.8,74.3,17
155485,1244434620,84.0,76.0,-92.0,0,0.483,796.8,74.3,17
155486,1244442625,85.0,78.0,-90.0,0,0.469,796.8,74.3,17
155487,1244450625,90.0,81.0,-87.0,0,0.475,796.8,74.3,17
155488,1244458625,90.0,83.0,-84.0,0,0.47,796.8,74.3,17
155489,1244466625,93.0,86.0,-81.0,0,0.465,796.8,74.3,17
155490,1244474625,95.0,88.0,-78.0,0,0.461,796.8,74.3,17
155491,1244482621,99.0,91.0,-76.0,0,0.447,796.8,74.3,17
155492,1244490621,100.0,93.0,-73.0,0,0.452,796.8,74.3,17
155493,1244498625,102.0,95.0,-70.0,0,0.448,796.8,74.3,17
155494,1244506625,104.0,97.0,-67.0,0,0.443,796.8,74.3,17
155495,1244514625,108.0,100.0,-64.0,0,0.438,796.8,74.3,17
155496,1244522624,108.0,102.0,-62.0,0,0.424,796.8,74.3,17
155497,1244530625,109.0,104.0,-59.0,0,0.43,796.8,74.3,17
155498,1244538625,109.0,105.0,-57.0,0,0.416,796.8,74.3,17
155499,1244546625,112.0,107.0,-55.0,0,0.412,796.8,74.3,17
155500,1244554625,112.0,108.0,-53.0,0,0.409,796.8,74.3,17
155501,1244562625,111.0,109.0,-51.0,0,0.405,796.8,74.3,17
155502,1244570622,113.0,110.0,-49.0,0,0.402,796.8,74.3,17
155503,1244578625,115.0,111.0,-48.0,0,0.389,796.8,74.3,17
155504,1244586623,109.0,111.0,-47.0,0,0.386,796.8,74.3,17
155505,1244594625,110.0,110.0,-46.0,0,0.384,796.8,74.3,17
155506,1244602622,116.0,112.0,-45.0,0,0.382,796.8,74.3,17
155507,1244610625,117.0,113.0,-43.0,0,0.389,796.8,74.3,17
155508,1244618621,117.0,114.0,-42.0,0,0.375,796.8,74.3,17
155509,1244626625,120.0,115.0,-41.0,0,0.373,796.8,74.3,17
155510,1244634620,127.0,118.0,-39.0,0,0.38,796.8,74.3,17
155511,1244642625,140.0,124.0,-36.0,0,0.386,796.8,74.3,17
155512,1244650625,150.0,130.0,-32.0,0,0.391,796.8,74.3,17
155513,1244658625,167.0,139.0,-27.0,0,0.395,796.8,74.3,17
155514,1244666625,183.0,150.0,-20.0,0,0.409,796.8,74.3,17
155515,1244674625,207.0,164.0,-11.0,0,0.421,796.8,74.3,17
155516,1244682625,234.0,181.0,0.0,0,0.461,796.8,74.3,17
155517,1244690621,264.0,201.0,14.0,0,0.515,796.8,74.3,17
155518,1244698625,295.0,224.0,30.0,0,0.56,796.8,74.3,17
155519,1244706621,329.0,249.0,49.0,0,0.616,796.8,74.3,17
155520,1244714625,356.0,275.0,69.0,0,0.658,796.8,74.3,17
155521,1244722625,383.0,301.0,91.0,0,0.708,796.8,74.3,17
155522,1244730625,412.0,328.0,114.0,0,0.751,796.8,74.3,17
155523,1244738625,434.0,354.0,137.0,0,0.785,796.8,74.3,17
155524,1244746623,454.0,378.0,160.0,0,0.816,796.8,74.3,17
155525,1244754625,471.0,401.0,183.0,0,0.842,796.8,74.3,17
155526,1244762625,480.0,420.0,204.0,0,0.851,796.8,74.3,17
155527,1244770625,490.0,437.0,223.0,0,0.853,796.8,74.3,17
155528,1244778622,490.0,450.0,241.0,0,0.858,796.8,74.3,17
155529,1244786622,485.0,458.0,255.0,0,0.832,796.8,74.3,17
155530,1244794623,485.0,465.0,266.0,0,0.806,796.8,74.3,17
155531,1244802625,478.0,468.0,274.0,0,0.774,796.8,74.3,17
155532,1244810625,467.0,468.0,280.0,0,0.752,796.8,74.3,17
155533,1244818625,451.0,464.0,282.0,0,0.703,796.8,74.3,17
155534,1244826625,437.0,457.0,281.0,1,0.689,796.8,74.3,17
155535,1244834624,421.0,448.0,277.0,0,0.721,796.8,74.3,17
155536,1244842620,404.0,438.0,271.0,0,0.741,796.8,74.3,17
155537,1244850624,383.0,424.0,263.0,0,0.759,796.8,74.3,17
155538,1244858621,365.0,410.0,252.0,0,0.785,796.8,74.3,17
155539,1244866621,344.0,394.0,239.0,0,0.794,796.8,74.3,17
155540,1244874624,324.0,377.0,225.0,0,0.79,796.8,74.3,17
155541,1244882625,304.0,359.0,210.0,0,0.783,796.8,74.3,17
155542,1244890623,282.0,341.0,193.0,0,0.78,796.8,74.3,17
155543,1244898624,261.0,321.0,175.0,0,0.765,796.8,74.3,17
155544,1244906622,239.0,301.0,156.0,0,0.745,796.8,74.3,17
155545,1244914622,220.0,282.0,137.0,0,0.717,796.8,74.3,17
155546,1244922621,198.0,261.0,118.0,0,0.687,796.8,74.3,17
155547,1244930625,180.0,242.0,98.0,0,0.662,796.8,74.3,17
155548,1244938625,167.0,224.0,79.0,0,0.624,796.8,74.3,17
155549,1244946625,151.0,206.0,60.0,0,0.593,796.8,74.3,17
155550,1244954625,137.0,189.0,42.0,0,0.557,796.8,74.3,17
155551,1244962620,124.0,173.0,24.0,0,0.53,796.8,74.3,17
155552,1244970623,113.0,159.0,8.0,0,0.491,796.8,74.3,17
155553,1244978625,106.0,146.0,-8.0,0,0.499,796.8,74.3,17
155554,1244986625,100.0,135.0,-22.0,0,0.501,796.8,74.3,17
155555,1244994623,94.0,125.0,-35.0,0,0.51,796.8,74.3,17
155556,1245002625,89.0,116.0,-46.0,0,0.506,796.8,74.3,17
155557,1245010625,84.0,108.0,-56.0,0,0.511,796.8,74.3,17
155558,1245018625,87.0,103.0,-65.0,0,0.514,796.8,74.3,17
155559,1245026622,84.0,99.0,-72.0,0,0.503,796.8,74.3,17
155560,1245034625,78.0,94.0,-79.0,0,0.515,796.8,74.3,17
155561,1245042624,80.0,90.0,-84.0,0,0.5,796.8,74.3,17
155562,1245050625,79.0,88.0,-89.0,0,0.508,796.8,74.3,17
155563,1245058625,80.0,86.0,-92.0,0,0.491,796.8,74.3,17
155564,1245066621,80.0,84.0,-95.0,0,0.496,796.8,74.3,17
155565,1245074622,79.0,83.0,-97.0,0,0.488,796.8,74.3,17
155566,1245082625,76.0,81.0,-99.0,0,0.492,796.8,74.3,17
155567,1245090623,75.0,80.0,-100.0,0,0.483,796.8,74.3,17
155568,1245098625,73.0,78.0,-102.0,0,0.497,796.8,74.3,17
155569,1245106625,68.0,76.0,-103.0,0,0.488,796.8,74.3,17
155570,1245114625,66.0,73.0,-105.0,0,0.502,796.8,74.3,17
155571,1245122625,67.0,72.0,-106.0,0,0.493,796.8,74.3,17
155572,1245130625,61.0,69.0,-107.0,0,0.495,796.8,74.3,17
155573,1245138620,60.0,67.0,-109.0,0,0.509,796.8,74.3,17
155574,1245146621,56.0,64.0,-110.0,0,0.5,796.8,74.3,17
155575,1245154625,54.0,62.0,-112.0,0,0.514,796.8,74.3,17
155576,1245162622,53.0,60.0,-114.0,0,0.517,796.8,74.3,17
155577,1245170625,48.0,57.0,-115.0,0,0.507,796.8,74.3,17
155578,1245178625,48.0,55.0,-117.0,0,0.521,796.8,74.3,17
155579,1245186625,45.0,52.0,-118.0,0,0.512,796.8,74.3,17
155580,1245194625,45.0,51.0,-120.0,0,0.525,796.8,74.3,17
155581,1245202625,44.0,49.0,-121.0,0,0.516,796.8,74.3,17
155582,1245210625,44.0,48.0,-122.0,0,0.517,796.8,74.3,17
155583,1245218621,47.0,48.0,-123.0,0,0.518,796.8,74.3,17
155584,1245226625,48.0,48.0,-123.0,1,0.508,796.8,74.3,17
155585,1245234625,52.0,49.0,-122.0,0,0.516,796.8,74.3,17
155586,1245242621,52.0,50.0,-121.0,0,0.514,796.8,74.3,17
155587,1245250623,52.0,50.0,-121.0,1,0.504,796.8,74.3,17
155588,1245258625,56.0,52.0,-119.0,0,0.521,796.8,74.3,17
155589,1245266623,60.0,54.0,-117.0,0,0.518,796.8,74.3,17
155590,1245274621,60.0,55.0,-116.0,0,0.505,796.8,74.3,17
155591,1245282622,61.0,57.0,-114.0,0,0.512,796.8,74.3,17
155592,1245290625,65.0,59.0,-111.0,0,0.518,796.8,74.3,17
155593,1245298625,70.0,61.0,-109.0,0,0.504,796.8,74.3,17
155594,1245306620,69.0,63.0,-106.0,0,0.51,796.8,74.3,17
155595,1245314620,75.0,66.0,-104.0,0,0.496,796.8,74.3,17
155596,1245322624,81.0,70.0,-100.0,0,0.511,796.8,74.3,17
155597,1245330625,78.0,72.0,-97.0,0,0.495,796.8,74.3,17
155598,1245338623,85.0,75.0,-94.0,0,0.49,796.8,74.3,17
155599,1245346625,89.0,78.0,-91.0,0,0.485,796.8,74.3,17
155600,1245354625,94.0,82.0,-87.0,0,0.49,796.8,74.3,17
155601,1245362625,97.0,86.0,-83.0,0,0.483,796.8,74.3,17
155602,1245370625,102.0,90.0,-79.0,0,0.477,796.8,74.3,17
155603,1245378621,104.0,93.0,-75.0,0,0.47,796.8,74.3,17
155604,1245386625,112.0,98.0,-71.0,0,0.464,796.8,74.3,17
155605,1245394625,116.0,102.0,-66.0,0,0.467,796.8,74.3,17
155606,1245402625,116.0,106.0,-62.0,0,0.449,796.8,74.3,17
155607,1245410625,121.0,109.0,-58.0,0,0.443,796.8,74.3,17
155608,1245418625,121.0,112.0,-54.0,0,0.437,796.8,74.3,17
155609,1245426625,127.0,116.0,-50.0,0,0.43,796.8,74.3,17
155610,1245434621,127.0,118.0,-47.0,0,0.414,796.8,74.3,17
155611,1245442623,132.0,122.0,-43.0,0,0.419,796.8,74.3,17
155612,1245450624,132.0,124.0,-40.0,0,0.403,796.8,74.3,17
155613,1245458621,136.0,127.0,-36.0,0,0.408,796.8,74.3,17
155614,1245466625,135.0,129.0,-34.0,0,0.382,796.8,74.3,17
155615,1245474625,137.0,131.0,-31.0,0,0.389,796.8,74.3,17
155616,1245482621,140.0,133.0,-28.0,0,0.384,796.8,74.3,17
155617,1245490625,138.0,134.0,-26.0,0,0.369,796.8,74.3,17
155618,1245498623,138.0,135.0,-24.0,0,0.365,796.8,74.3,17
155619,1245506625,140.0,136.0,-22.0,0,0.362,796.8,74.3,17
155620,1245514624,135.0,136.0,-21.0,0,0.348,796.8,74.3,17
155621,1245522625,135.0,136.0,-21.0,1,0.335,796.8,74.3,17
155622,1245530624,139.0,137.0,-20.0,0,0.344,796.8,74.3,17
155623,1245538622,142.0,138.0,-19.0,0,0.341,796.8,74.3,17
155624,1245546624,151.0,141.0,-17.0,0,0.349,796.8,74.3,17
155625,1245554625,162.0,146.0,-14.0,0,0.356,796.8,74.3,17
155626,1245562625,179.0,154.0,-10.0,0,0.361,796.8,74.3,17
155627,1245570625,203.0,166.0,-4.0,0,0.394,796.8,74.3,17
155628,1245578625,228.0,181.0,5.0,0,0.447,796.8,74.3,17
155629,1245586625,253.0,198.0,16.0,0,0.49,796.8,74.3,17
155630,1245594625,286.0,220.0,30.0,0,0.546,796.8,74.3,17
155631,1245602623,321.0,244.0,47.0,0,0.604,796.8,74.3,17
155632,1245610621,356.0,271.0,66.0,0,0.654,796.8,74.3,17
155633,1245618625,389.0,300.0,88.0,0,0.712,796.8,74.3,17
155634,1245626625,417.0,328.0,111.0,0,0.757,796.8,74.3,17
155635,1245634623,441.0,356.0,136.0,0,0.805,796.8,74.3,17
155636,1245642623,465.0,382.0,160.0,0,0.833,796.8,74.3,17
155637,1245650624,482.0,406.0,184.0,0,0.86,796.8,74.3,17
155638,1245658620,498.0,429.0,207.0,0,0.877,796.8,74.3,17
155639,1245666625,516.0,450.0,229.0,0,0.888,796.8,74.3,17
155640,1245674622,514.0,465.0,248.0,0,0.881,796.8,74.3,17
155641,1245682620,519.0,478.0,265.0,0,0.874,796.8,74.3,17
155642,1245690625,514.0,487.0,279.0,0,0.854,796.8,74.3,17
155643,1245698625,511.0,493.0,290.0,0,0.826,796.8,74.3,17
155644,1245706625,502.0,495.0,298.0,0,0.793,796.8,74.3,17
155645,1245714625,492.0,494.0,303.0,0,0.756,796.8,74.3,17
155646,1245722622,476.0,490.0,305.0,0,0.719,796.8,74.3,17
155647,1245730621,462.0,483.0,303.0,1,0.716,796.8,74.3,17
155648,1245738625,445.0,474.0,299.0,0,0.738,796.8,74.3,17
155649,1245746625,428.0,463.0,293.0,0,0.759,796.8,74.3,17
155650,1245754620,409.0,450.0,284.0,0,0.791,796.8,74.3,17
155651,1245762624,383.0,434.0,272.0,0,0.817,796.8,74.3,17
155652,1245770623,362.0,416.0,259.0,0,0.818,796.8,74.3,17
155653,1245778625,345.0,399.0,244.0,0,0.824,796.8,74.3,17
155654,1245786621,322.0,380.0,227.0,0,0.825,796.8,74.3,17
155655,1245794621,300.0,361.0,210.0,0,0.807,796.8,74.3,17
155656,1245802625,279.0,341.0,191.0,0,0.798,796.8,74.3,17
155657,1245810625,255.0,320.0,172.0,0,0.773,796.8,74.3,17
155658,1245818625,234.0,299.0,152.0,0,0.751,796.8,74.3,17
155659,1245826625,215.0,279.0,131.0,0,0.725,796.8,74.3,17
155660,1245834623,193.0,258.0,111.0,0,0.686,796.8,74.3,17
155661,1245842625,176.0,238.0,90.0,0,0.658,796.8,74.3,17
155662,1245850620,159.0,219.0,70.0,0,0.618,796.8,74.3,17
155663,1245858625,144.0,201.0,51.0,0,0.58,796.8,74.3,17
155664,1245866625,132.0,184.0,32.0,0,0.55,796.8,74.3,17
155665,1245874625,116.0,168.0,14.0,0,0.515,796.8,74.3,17
155666,1245882623,108.0,153.0,-3.0,0,0.506,796.8,74.3,17
155667,1245890625,95.0,139.0,-19.0,0,0.521,796.8,74.3,17
155668,1245898620,89.0,127.0,-34.0,0,0.535,796.8,74.3,17
155669,1245906625,86.0,117.0,-47.0,0,0.536,796.8,74.3,17
155670,1245914625,81.0,108.0,-59.0,0,0.546,796.8,74.3,17
155671,1245922626,73.0,100.0,-69.0,0,0.54,796.8,74.3,17
155672,1245930625,66.0,92.0,-79.0,0,0.557,796.8,74.3,17
155673,1245938620,61.0,84.0,-88.0,0,0.561,796.8,74.3,17
155674,1245946625,56.0,77.0,-96.0,0,0.562,796.8,74.3,17
155675,1245954625,54.0,72.0,-103.0,0,0.562,796.8,74.3,17
155676,1245962625,53.0,67.0,-109.0,0,0.56,796.8,74.3,17
155677,1245970621,51.0,63.0,-115.0,0,0.57,796.8,74.3,17
155678,1245978625,48.0,60.0,-119.0,0,0.553,796.8,74.3,17
155679,1245986625,43.0,56.0,-123.0,0,0.56,796.8,74.3,17
155680,1245994625,41.0,52.0,-127.0,0,0.566,796.8,74.3,17
155681,1246002622,41.0,49.0,-130.0,0,0.559,796.8,74.3,17
155682,1246010623,40.0,47.0,-133.0,0,0.564,796.8,74.3,17
155683,1246018625,34.0,44.0,-136.0,0,0.568,796.8,74.3,17
155684,1246026625,33.0,41.0,-138.0,0,0.56,796.8,74.3,17
155685,1246034624,30.0,39.0,-140.0,0,0.563,796.8,74.3,17
155686,1246042625,26.0,35.0,-142.0,0,0.566,796.8,74.3,17
155687,1246050625,25.0,33.0,-144.0,0,0.569,796.8,74.3,17
155688,1246058625,20.0,30.0,-146.0,0,0.571,796.8,74.3,17
155689,1246066621,17.0,27.0,-148.0,0,0.574,796.8,74.3,17
155690,1246074625,20.0,25.0,-150.0,0,0.576,796.8,74.3,17
155691,1246082625,20.0,24.0,-151.0,0,0.567,796.8,74.3,17
155692,1246090621,17.0,22.0,-152.0,0,0.568,796.8,74.3,17
155693,1246098625,17.0,21.0,-153.0,0,0.568,796.8,74.3,17
155694,1246106625,22.0,21.0,-153.0,1,0.558,796.8,74.3,17
155695,1246114620,22.0,21.0,-153.0,0,0.557,796.8,74.3,17
155696,1246122625,22.0,22.0,-152.0,0,0.566,796.8,74.3,17
155697,1246130625,24.0,22.0,-151.0,0,0.564,796.8,74.3,17
155698,1246138623,28.0,24.0,-150.0,0,0.562,796.8,74.3,17
155699,1246146625,33.0,26.0,-148.0,0,0.569,796.8,74.3,17
155700,1246154621,32.0,27.0,-146.0,0,0.566,796.8,74.3,17
155701,1246162622,32.0,28.0,-144.0,0,0.563,796.8,74.3,17
155702,1246170621,33.0,30.0,-142.0,0,0.559,796.8,74.3,17
155703,1246178624,36.0,31.0,-140.0,0,0.556,796.8,74.3,17
155704,1246186625,40.0,33.0,-138.0,0,0.552,796.8,74.3,17
155705,1246194625,41.0,35.0,-135.0,0,0.559,796.8,74.3,17
155706,1246202623,44.0,37.0,-133.0,0,0.544,796.8,74.3,17
155707,1246210625,46.0,39.0,-130.0,0,0.55,796.8,74.3,17
155708,1246218621,52.0,42.0,-127.0,0,0.545,796.8,74.3,17
155709,1246226622,51.0,45.0,-124.0,0,0.54,796.8,74.3,17
155710,1246234625,60.0,48.0,-121.0,0,0.535,796.8,74.3,17
155711,1246242625,61.0,51.0,-117.0,0,0.54,796.8,74.3,17
155712,1246250625,65.0,55.0,-113.0,0,0.533,796.8,74.3,17
155713,1246258625,67.0,58.0,-110.0,0,0.517,796.8,74.3,17
155714,1246266625,76.0,62.0,-106.0,0,0.521,796.8,74.3,17
155715,1246274625,75.0,65.0,-102.0,0,0.514,796.8,74.3,17
155716,1246282624,76.0,68.0,-98.0,0,0.508,796.8,74.3,17
155717,1246290621,78.0,70.0,-94.0,0,0.501,796.8,74.3,17
155718,1246298625,85.0,74.0,-91.0,0,0.485,796.8,74.3,17
155719,1246306624,84.0,76.0,-87.0,0,0.489,796.8,74.3,17
155720,1246314625,87.0,79.0,-84.0,0,0.473,796.8,74.3,17
155721,1246322625,95.0,83.0,-80.0,0,0.477,796.8,74.3,17
155722,1246330625,95.0,86.0,-77.0,0,0.461,796.8,74.3,17
155723,1246338621,98.0,89.0,-73.0,0,0.466,796.8,74.3,17
155724,1246346620,100.0,91.0,-70.0,0,0.449,796.8,74.3,17
155725,1246354621,107.0,95.0,-66.0,0,0.454,796.8,74.3,17
155726,1246362625,110.0,99.0,-62.0,0,0.447,796.8,74.3,17
155727,1246370625,109.0,101.0,-59.0,0,0.431,796.8,74.3,17
155728,1246378625,111.0,104.0,-56.0,0,0.426,796.8,74.3,17
155729,1246386625,115.0,106.0,-52.0,0,0.431,796.8,74.3,17
155730,1246394625,115.0,108.0,-49.0,0,0.415,796.8,74.3,17
155731,1246402625,116.0,110.0,-47.0,0,0.4,796.8,74.3,17
155732,1246410625,121.0,113.0,-44.0,0,0.406,796.8,74.3,17
155733,1246418621,120.0,115.0,-41.0,0,0.401,796.8,74.3,17
155734,1246426625,123.0,117.0,-39.0,0,0.386,796.8,74.3,17
155735,1246434622,124.0,118.0,-37.0,0,0.383,796.8,74.3,17
155736,1246442625,127.0,121.0,-34.0,0,0.389,796.8,74.3,17
155737,1246450623,132.0,123.0,-32.0,0,0.374,796.8,74.3,17
155738,1246458625,140.0,127.0,-29.0,0,0.38,796.8,74.3,17
155739,1246466625,153.0,134.0,-25.0,0,0.386,796.8,74.3,17
155740,1246474624,165.0,141.0,-20.0,0,0.39,796.8,74.3,17
155741,1246482625,185.0,152.0,-13.0,0,0.404,796.8,74.3,17
155742,1246490622,211.0,166.0,-5.0,0,0.413,796.8,74.3,17
155743,1246498625,238.0,184.0,7.0,0,0.478,796.8,74.3,17
155744,1246506625,275.0,206.0,21.0,0,0.521,796.8,74.3,17
155745,1246514622,303.0,229.0,38.0,0,0.576,796.8,74.3,17
155746,1246522622,337.0,255.0,57.0,0,0.623,796.8,74.3,17
155747,1246530625,372.0,284.0,78.0,0,0.672,796.8,74.3,17
155748,1246538625,408.0,314.0,102.0,0,0.728,796.8,74.3,17
155749,1246546627,435.0,343.0,127.0,0,0.772,796.8,74.3,17
155750,1246554625,458.0,371.0,152.0,0,0.807,796.8,74.3,17
155751,1246562625,479.0,397.0,177.0,0,0.838,796.8,74.3,17
155752,1246570625,496.0,421.0,202.0,0,0.863,796.8,74.3,17
155753,1246578625,514.0,444.0,225.0,0,0.873,796.8,74.3,17
155754,1246586625,521.0,462.0,246.0,0,0.876,796.8,74.3,17
155755,1246594625,522.0,477.0,265.0,0,0.873,796.8,74.3,17
155756,1246602625,524.0,488.0,281.0,0,0.857,796.8,74.3,17
155757,1246610620,519.0,496.0,294.0,0,0.834,796.8,74.3,17
155758,1246618625,511.0,499.0,304.0,0,0.806,796.8,74.3,17
155759,1246626625,500.0,500.0,310.0,0,0.76,796.8,74.3,17
155760,1246634625,488.0,497.0,313.0,0,0.725,796.8,74.3,17
155761,1246642625,472.0,491.0,313.0,1,0.69,796.8,74.3,17
155762,1246650623,457.0,483.0,310.0,0,0.72,796.8,74.3,17
155763,1246658625,440.0,472.0,305.0,0,0.74,796.8,74.3,17
155764,1246666623,420.0,460.0,297.0,0,0.771,796.8,74.3,17
155765,1246674625,404.0,446.0,286.0,0,0.798,796.8,74.3,17
155766,1246682624,383.0,431.0,274.0,0,0.799,796.8,74.3,17
155767,1246690625,362.0,414.0,261.0,0,0.799,796.8,74.3,17
155768,1246698625,338.0,396.0,245.0,0,0.812,796.8,74.3,17
155769,1246706625,315.0,376.0,228.0,0,0.804,796.8,74.3,17
155770,1246714620,292.0,356.0,210.0,0,0.791,796.8,74.3,17
155771,1246722625,269.0,335.0,190.0,0,0.781,796.8,74.3,17
155772,1246730625,246.0,313.0,170.0,0,0.754,796.8,74.3,17
155773,1246738621,226.0,292.0,149.0,0,0.731,796.8,74.3,17
155774,1246746625,205.0,271.0,128.0,0,0.699,796.8,74.3,17
155775,1246754625,184.0,250.0,107.0,0,0.666,796.8,74.3,17
155776,1246762625,172.0,231.0,87.0,0,0.628,796.8,74.3,17
155777,1246770625,153.0,212.0,67.0,0,0.597,796.8,74.3,17
155778,1246778625,140.0,195.0,47.0,0,0.566,796.8,74.3,17
155779,1246786625,124.0,177.0,29.0,0,0.526,796.8,74.3,17
155780,1246794625,116.0,163.0,11.0,0,0.501,796.8,74.3,17
155781,1246802625,111.0,150.0,-5.0,0,0.494,796.8,74.3,17
155782,1246810625,104.0,139.0,-19.0,0,0.495,796.8,74.3,17
155783,1246818625,98.0,129.0,-32.0,0,0.504,796.8,74.3,17
155784,1246826625,95.0,121.0,-44.0,0,0.511,796.8,74.3,17
155785,1246834624,92.0,114.0,-54.0,0,0.505,796.8,74.3,17
155786,1246842623,85.0,107.0,-63.0,0,0.508,796.8,74.3,17
155787,1246850625,84.0,101.0,-71.0,0,0.51,796.8,74.3,17
155788,1246858625,80.0,96.0,-78.0,0,0.509,796.8,74.3,17
155789,1246866623,77.0,91.0,-84.0,0,0.507,796.8,74.3,17
155790,1246874625,77.0,88.0,-89.0,0,0.504,796.8,74.3,17
155791,1246882625,74.0,85.0,-94.0,0,0.512,796.8,74.3,17
155792,1246890624,71.0,81.0,-97.0,0,0.495,796.8,74.3,17
155793,1246898625,68.0,78.0,-101.0,0,0.511,796.8,74.3,17
155794,1246906624,66.0,75.0,-104.0,0,0.505,796.8,74.3,17
155795,1246914625,60.0,71.0,-107.0,0,0.509,796.8,74.3,17
155796,1246922620,62.0,69.0,-110.0,0,0.514,796.8,74.3,17
155797,1246930625,54.0,65.0,-112.0,0,0.506,796.8,74.3,17
155798,1246938625,50.0,62.0,-115.0,0,0.521,796.8,74.3,17
155799,1246946625,48.0,58.0,-118.0,0,0.525,796.8,74.3,17
155800,1246954622,44.0,55.0,-121.0,0,0.53,796.8,74.3,17
155801,1246962625,43.0,52.0,-123.0,0,0.522,796.8,74.3,17
155802,1246970625,42.0,50.0,-125.0,0,0.524,796.8,74.3,17
155803,1246978621,40.0,47.0,-127.0,0,0.527,796.8,74.3,17
155804,1246986621,38.0,45.0,-129.0,0,0.53,796.8,74.3,17
155805,1246994622,35.0,43.0,-131.0,0,0.532,796.8,74.3,17
155806,1247002625,32.0,40.0,-133.0,0,0.535,796.8,74.3,17
155807,1247010621,36.0,39.0,-134.0,0,0.525,796.8,74.3,17
155808,1247018625,35.0,38.0,-135.0,0,0.526,796.8,74.3,17
155809,1247026623,30.0,36.0,-136.0,0,0.527,796.8,74.3,17
155810,1247034623,34.0,36.0,-136.0,1,0.517,796.8,74.3,17
155811,1247042625,32.0,35.0,-137.0,0,0.528,796.8,74.3,17
155812,1247050625,35.0,35.0,-137.0,1,0.518,796.8,74.3,17
155813,1247058625,32.0,34.0,-137.0,0,0.517,796.8,74.3,17
155814,1247066621,32.0,34.0,-136.0,0,0.525,796.8,74.3,17
155815,1247074625,35.0,34.0,-136.0,1,0.515,796.8,74.3,17
155816,1247082623,39.0,35.0,-135.0,0,0.523,796.8,74.3,17
155817,1247090625,39.0,36.0,-134.0,0,0.521,796.8,74.3,17
155818,1247098625,40.0,37.0,-132.0,0,0.528,796.8,74.3,17
155819,1247106625,43.0,38.0,-131.0,0,0.515,796.8,74.3,17
155820,1247114623,48.0,41.0,-129.0,0,0.522,796.8,74.3,17
155821,1247122621,49.0,43.0,-126.0,0,0.528,796.8,74.3,17
155822,1247130621,52.0,45.0,-124.0,0,0.514,796.8,74.3,17
155823,1247138625,60.0,49.0,-121.0,0,0.52,796.8,74.3,17
155824,1247146625,57.0,51.0,-118.0,0,0.515,796.8,74.3,17
155825,1247154625,59.0,53.0,-115.0,0,0.51,796.8,74.3,17
155826,1247162625,67.0,56.0,-112.0,0,0.506,796.8,74.3,17
155827,1247170625,69.0,59.0,-108.0,0,0.51,796.8,74.3,17
155828,1247178625,73.0,63.0,-105.0,0,0.495,796.8,74.3,17
155829,1247186622,76.0,66.0,-101.0,0,0.499,796.8,74.3,17
155830,1247194620,77.0,69.0,-98.0,0,0.484,796.8,74.3,17
155831,1247202625,80.0,71.0,-94.0,0,0.488,796.8,74.3,17
155832,1247210625,89.0,76.0,-90.0,0,0.482,796.8,74.3,17
155833,1247218625,84.0,78.0,-87.0,0,0.466,796.8,74.3,17
155834,1247226625,89.0,80.0,-83.0,0,0.471,796.8,74.3,17
155835,1247234625,92.0,83.0,-80.0,0,0.455,796.8,74.3,17
155836,1247242625,96.0,86.0,-77.0,0,0.451,796.8,74.3,17
155837,1247250622,96.0,89.0,-73.0,0,0.455,796.8,74.3,17
155838,1247258625,99.0,91.0,-70.0,0,0.44,796.8,74.3,17
155839,1247266625,100.0,93.0,-67.0,0,0.435,796.8,74.3,17
155840,1247274625,100.0,95.0,-65.0,0,0.421,796.8,74.3,17
155841,1247282620,102.0,97.0,-62.0,0,0.427,796.8,74.3,17
155842,1247290621,104.0,98.0,-60.0,0,0.413,796.8,74.3,17
155843,1247298622,112.0,102.0,-57.0,0,0.419,796.8,74.3,17
155844,1247306625,116.0,105.0,-54.0,0,0.414,796.8,74.3,17
155845,1247314625,127.0,110.0,-50.0,0,0.419,796.8,74.3,17
155846,1247322625,142.0,118.0,-45.0,0,0.423,796.8,74.3,17
155847,1247330625,158.0,128.0,-39.0,0,0.426,796.8,74.3,17
155848,1247338625,177.0,140.0,-31.0,0,0.438,796.8,74.3,17
155849,1247346622,199.0,154.0,-21.0,0,0.447,796.8,74.3,17
155850,1247354623,228.0,172.0,-9.0,0,0.452,796.8,74.3,17
155851,1247362623,259.0,193.0,6.0,0,0.495,796.8,74.3,17
155852,1247370625,287.0,216.0,22.0,0,0.527,796.8,74.3,17
155853,1247378625,316.0,240.0,41.0,0,0.578,796.8,74.3,17
155854,1247386625,340.0,264.0,61.0,0,0.616,796.8,74.3,17
155855,1247394625,367.0,289.0,82.0,0,0.656,796.8,74.3,17
155856,1247402621,393.0,314.0,105.0,0,0.703,796.8,74.3,17
155857,1247410625,412.0,338.0,127.0,0,0.731,796.8,74.3,17
155858,1247418625,428.0,360.0,148.0,0,0.755,796.8,74.3,17
155859,1247426625,434.0,378.0,169.0,0,0.783,796.8,74.3,17
155860,1247434623,444.0,394.0,187.0,0,0.783,796.8,74.3,17
155861,1247442623,447.0,407.0,204.0,0,0.793,796.8,74.3,17
155862,1247450622,444.0,416.0,217.0,0,0.769,796.8,74.3,17
155863,1247458621,439.0,421.0,228.0,0,0.758,796.8,74.3,17
155864,1247466623,432.0,424.0,237.0,0,0.744,796.8,74.3,17
155865,1247474625,423.0,424.0,242.0,0,0.702,796.8,74.3,17
155866,1247482625,408.0,420.0,244.0,0,0.669,796.8,74.3,17
155867,1247490625,396.0,414.0,243.0,1,0.657,796.8,74.3,17
155868,1247498623,382.0,406.0,240.0,0,0.675,796.8,74.3,17
155869,1247506620,364.0,396.0,235.0,0,0.693,796.8,74.3,17
155870,1247514625,347.0,384.0,227.0,0,0.72,796.8,74.3,17
155871,1247522625,330.0,371.0,217.0,0,0.733,796.8,74.3,17
155872,1247530625,310.0,356.0,206.0,0,0.732,796.8,74.3,17
155873,1247538622,291.0,340.0,193.0,0,0.738,796.8,74.3,17
155874,1247546625,270.0,323.0,179.0,0,0.731,796.8,74.3,17
155875,1247554625,247.0,305.0,163.0,0,0.728,796.8,74.3,17
155876,1247562625,227.0,286.0,146.0,0,0.713,796.8,74.3,17
155877,1247570625,208.0,267.0,128.0,0,0.694,796.8,74.3,17
155878,1247578625,189.0,248.0,110.0,0,0.667,796.8,74.3,17
155879,1247586624,170.0,229.0,92.0,0,0.639,796.8,74.3,17
155880,1247594624,156.0,211.0,73.0,0,0.616,796.8,74.3,17
155881,1247602624,147.0,196.0,56.0,0,0.574,796.8,74.3,17
155882,1247610625,132.0,180.0,39.0,0,0.548,796.8,74.3,17
155883,1247618625,125.0,167.0,23.0,0,0.516,796.8,74.3,17
155884,1247626625,119.0,155.0,8.0,0,0.486,796.8,74.3,17
155885,1247634620,116.0,146.0,-5.0,0,0.458,796.8,74.3,17
155886,1247642624,114.0,138.0,-16.0,0,0.452,796.8,74.3,17
155887,1247650625,109.0,131.0,-26.0,0,0.455,796.8,74.3,17
155888,1247658625,107.0,125.0,-35.0,0,0.457,796.8,74.3,17
155889,1247666625,107.0,121.0,-43.0,0,0.457,796.8,74.3,17
155890,1247674624,101.0,116.0,-49.0,0,0.444,796.8,74.3,17
155891,1247682625,108.0,114.0,-54.0,0,0.44,796.8,74.3,17
155892,1247690625,107.0,112.0,-58.0,0,0.435,796.8,74.3,17
155893,1247698621,108.0,111.0,-61.0,0,0.429,796.8,74.3,17
155894,1247706625,104.0,110.0,-64.0,0,0.434,796.8,74.3,17
155895,1247714625,108.0,109.0,-66.0,0,0.426,796.8,74.3,17
155896,1247722623,111.0,110.0,-67.0,0,0.417,796.8,74.3,17
155897,1247730625,107.0,109.0,-67.0,1,0.408,796.8,74.3,17
155898,1247738623,100.0,107.0,-68.0,0,0.419,796.8,74.3,17
155899,1247746625,100.0,105.0,-70.0,0,0.433,796.8,74.3,17
155900,1247754625,99.0,104.0,-71.0,0,0.425,796.8,74.3,17
155901,1247762625,99.0,103.0,-72.0,0,0.426,796.8,74.3,17
155902,1247770624,97.0,101.0,-72.0,1,0.417,796.8,74.3,17
155903,1247778620,94.0,99.0,-73.0,0,0.429,796.8,74.3,17
155904,1247786625,88.0,97.0,-75.0,0,0.443,796.8,74.3,17
155905,1247794625,89.0,95.0,-76.0,0,0.434,796.8,74.3,17
155906,1247802623,82.0,92.0,-78.0,0,0.448,796.8,74.3,17
155907,1247810623,82.0,89.0,-80.0,0,0.451,796.8,74.3,17
155908,1247818625,80.0,87.0,-81.0,0,0.442,796.8,74.3,17
155909,1247826625,78.0,85.0,-83.0,0,0.456,796.8,74.3,17
155910,1247834625,75.0,82.0,-85.0,0,0.46,796.8,74.3,17
155911,1247842624,74.0,80.0,-86.0,0,0.451,796.8,74.3,17
155912,1247850625,71.0,78.0,-88.0,0,0.465,796.8,74.3,17
155913,1247858625,71.0,76.0,-90.0,0,0.468,796.8,74.3,17
155914,1247866625,68.0,74.0,-91.0,0,0.459,796.8,74.3,17
155915,1247874624,71.0,74.0,-92.0,0,0.461,796.8,74.3,17
155916,1247882625,67.0,72.0,-93.0,0,0.462,796.8,74.3,17
155917,1247890625,68.0,71.0,-94.0,0,0.464,796.8,74.3,17
155918,1247898625,65.0,70.0,-95.0,0,0.465,796.8,74.3,17
155919,1247906625,65.0,68.0,-96.0,0,0.467,796.8,74.3,17
155920,1247914625,64.0,67.0,-96.0,1,0.457,796.8,74.3,17
155921,1247922625,67.0,67.0,-97.0,0,0.468,796.8,74.3,17
155922,1247930625,66.0,67.0,-97.0,1,0.458,796.8,74.3,17
155923,1247938621,66.0,67.0,-97.0,0,0.458,796.8,74.3,17
155924,1247946625,72.0,68.0,-96.0,0,0.466,796.8,74.3,17
155925,1247954625,68.0,68.0,-95.0,0,0.465,796.8,74.3,17
155926,1247962625,72.0,69.0,-95.0,1,0.454,796.8,74.3,17
155927,1247970625,73.0,70.0,-93.0,0,0.472,796.8,74.3,17
155928,1247978621,75.0,71.0,-92.0,0,0.46,796.8,74.3,17
155929,1247986624,80.0,73.0,-91.0,0,0.458,796.8,74.3,17
155930,1247994625,76.0,74.0,-89.0,0,0.465,796.8,74.3,17
155931,1248002625,82.0,76.0,-87.0,0,0.462,796.8,74.3,17
155932,1248010623,84.0,78.0,-85.0,0,0.458,796.8,74.3,17
155933,1248018625,86.0,80.0,-83.0,0,0.455,796.8,74.3,17
155934,1248026625,91.0,83.0,-81.0,0,0.452,796.8,74.3,17
155935,1248034625,92.0,85.0,-78.0,0,0.458,796.8,74.3,17
155936,1248042625,93.0,87.0,-75.0,0,0.453,796.8,74.3,17
155937,1248050625,94.0,89.0,-73.0,0,0.439,796.8,74.3,17
155938,1248058624,95.0,90.0,-71.0,0,0.435,796.8,74.3,17
155939,1248066625,99.0,92.0,-68.0,0,0.441,796.8,74.3,17
155940,1248074623,100.0,94.0,-66.0,0,0.427,796.8,74.3,17
155941,1248082625,104.0,97.0,-64.0,0,0.424,796.8,74.3,17
155942,1248090625,107.0,99.0,-61.0,0,0.43,796.8,74.3,17
155943,1248098625,109.0,101.0,-58.0,0,0.425,796.8,74.3,17
155944,1248106623,110.0,104.0,-56.0,0,0.411,796.8,74.3,17
155945,1248114625,109.0,105.0,-53.0,0,0.417,796.8,74.3,17
155946,1248122625,112.0,107.0,-51.0,0,0.403,796.8,74.3,17
155947,1248130625,115.0,109.0,-49.0,0,0.4,796.8,74.3,17
155948,1248138625,120.0,111.0,-46.0,0,0.406,796.8,74.3,17
155949,1248146623,119.0,113.0,-44.0,0,0.392,796.8,74.3,17
155950,1248154625,123.0,116.0,-42.0,0,0.389,796.8,74.3,17
155951,1248162625,123.0,117.0,-39.0,0,0.395,796.8,74.3,17
155952,1248170625,132.0,121.0,-37.0,0,0.381,796.8,74.3,17
155953,1248178625,140.0,126.0,-33.0,0,0.397,796.8,74.3,17
155954,1248186625,150.0,131.0,-29.0,0,0.392,796.8,74.3,17
155955,1248194625,173.0,142.0,-23.0,0,0.406,796.8,74.3,17
155956,1248202625,190.0,153.0,-16.0,0,0.408,796.8,74.3,17
155957,1248210625,220.0,169.0,-6.0,0,0.43,796.8,74.3,17
155958,1248218625,250.0,189.0,7.0,0,0.475,796.8,74.3,17
155959,1248226621,281.0,211.0,22.0,0,0.517,796.8,74.3,17
155960,1248234621,312.0,236.0,40.0,0,0.569,796.8,74.3,17
155961,1248242621,349.0,263.0,60.0,0,0.615,796.8,74.3,17
155962,1248250621,375.0,290.0,82.0,0,0.663,796.8,74.3,17
155963,1248258623,411.0,320.0,106.0,0,0.711,796.8,74.3,17
155964,1248266623,432.0,347.0,130.0,0,0.748,796.8,74.3,17
155965,1248274622,453.0,373.0,154.0,0,0.783,796.8,74.3,17
155966,1248282625,471.0,396.0,178.0,0,0.814,796.8,74.3,17
155967,1248290625,485.0,418.0,201.0,0,0.834,796.8,74.3,17
155968,1248298623,492.0,436.0,222.0,0,0.843,796.8,74.3,17
155969,1248306625,499.0,451.0,240.0,0,0.838,796.8,74.3,17
155970,1248314620,500.0,463.0,256.0,0,0.833,796.8,74.3,17
155971,1248322620,499.0,472.0,270.0,0,0.824,796.8,74.3,17
155972,1248330625,487.0,475.0,280.0,0,0.788,796.8,74.3,17
155973,1248338625,482.0,477.0,287.0,0,0.758,796.8,74.3,17
155974,1248346622,472.0,476.0,291.0,0,0.726,796.8,74.3,17
155975,1248354625,457.0,471.0,292.0,0,0.693,796.8,74.3,17
155976,1248362625,443.0,464.0,290.0,1,0.702,796.8,74.3,17
155977,1248370621,426.0,455.0,286.0,0,0.722,796.8,74.3,17
155978,1248378625,412.0,445.0,279.0,0,0.752,796.8,74.3,17
155979,1248386625,393.0,432.0,271.0,0,0.758,796.8,74.3,17
155980,1248394623,372.0,418.0,260.0,0,0.784,796.8,74.3,17
155981,1248402625,353.0,402.0,247.0,0,0.795,796.8,74.3,17
155982,1248410621,328.0,384.0,233.0,0,0.793,796.8,74.3,17
155983,1248418623,309.0,366.0,217.0,0,0.797,796.8,74.3,17
155984,1248426621,289.0,347.0,200.0,0,0.787,796.8,74.3,17
155985,1248434624,267.0,328.0,182.0,0,0.773,796.8,74.3,17
155986,1248442622,248.0,308.0,163.0,0,0.756,796.8,74.3,17
155987,1248450625,225.0,288.0,144.0,0,0.729,796.8,74.3,17
155988,1248458625,202.0,267.0,124.0,0,0.706,796.8,74.3,17
155989,1248466622,180.0,246.0,104.0,0,0.675,796.8,74.3,17
155990,1248474625,170.0,228.0,84.0,0,0.643,796.8,74.3,17
155991,1248482623,155.0,210.0,65.0,0,0.606,796.8,74.3,17
155992,1248490620,140.0,193.0,46.0,0,0.576,796.8,74.3,17
155993,1248498625,127.0,177.0,28.0,0,0.542,796.8,74.3,17
155994,1248506626,121.0,163.0,12.0,0,0.502,796.8,74.3,17
155995,1248514620,112.0,151.0,-4.0,0,0.488,796.8,74.3,17
155996,1248522625,110.0,141.0,-17.0,0,0.477,796.8,74.3,17
155997,1248530621,103.0,132.0,-30.0,0,0.496,796.8,74.3,17
155998,1248538625,96.0,123.0,-41.0,0,0.492,796.8,74.3,17
155999,1248546625,94.0,116.0,-51.0,0,0.496,796.8,74.3,17
156000,1248554625,92.0,110.0,-59.0,0,0.486,796.8,74.3,17
156001,1248562625,84.0,104.0,-67.0,0,0.499,796.8,74.3,17
156002,1248570625,87.0,100.0,-73.0,0,0.485,796.8,74.3,17
156003,1248578625,87.0,97.0,-79.0,0,0.495,796.8,74.3,17
156004,1248586625,84.0,94.0,-83.0,0,0.479,796.8,74.3,17
156005,1248594625,81.0,91.0,-87.0,0,0.486,796.8,74.3,17
156006,1248602625,76.0,87.0,-91.0,0,0.492,796.8,74.3,17
156007,1248610625,73.0,84.0,-94.0,0,0.486,796.8,74.3,17
156008,1248618625,74.0,81.0,-97.0,0,0.491,796.8,74.3,17
156009,1248626623,65.0,77.0,-100.0,0,0.496,796.8,74.3,17
156010,1248634625,63.0,74.0,-103.0,0,0.501,796.8,74.3,17
156011,1248642621,56.0,70.0,-106.0,0,0.506,796.8,74.3,17
156012,1248650623,55.0,66.0,-109.0,0,0.511,796.8,74.3,17
156013,1248658620,56.0,64.0,-112.0,0,0.516,796.8,74.3,17
156014,1248666624,54.0,61.0,-114.0,0,0.509,796.8,74.3,17
156015,1248674620,48.0,58.0,-116.0,0,0.512,796.8,74.3,17
156016,1248682623,45.0,55.0,-119.0,0,0.528,796.8,74.3,17
156017,1248690624,41.0,52.0,-121.0,0,0.52,796.8,74.3,17
156018,1248698621,40.0,49.0,-123.0,0,0.523,796.8,74.3,17
156019,1248706622,40.0,47.0,-125.0,0,0.527,796.8,74.3,17
156020,1248714625,39.0,45.0,-127.0,0,0.53,796.8,74.3,17
156021,1248722625,36.0,43.0,-128.0,0,0.521,796.8,74.3,17
156022,1248730625,36.0,41.0,-130.0,0,0.535,796.8,74.3,17
156023,1248738625,37.0,40.0,-131.0,0,0.525,796.8,74.3,17
156024,1248746621,40.0,40.0,-131.0,1,0.515,796.8,74.3,17
156025,1248754622,37.0,39.0,-131.0,0,0.515,796.8,74.3,17
156026,1248762625,37.0,39.0,-132.0,0,0.527,796.8,74.3,17
156027,1248770625,38.0,39.0,-131.0,1,0.526,796.8,74.3,17
156028,1248778620,37.0,38.0,-131.0,1,0.515,796.8,74.3,17
156029,1248786625,39.0,38.0,-131.0,0,0.515,796.8,74.3,17
156030,1248794621,42.0,39.0,-130.0,0,0.524,796.8,74.3,17
156031,1248802621,41.0,40.0,-129.0,0,0.523,796.8,74.3,17
156032,1248810625,46.0,41.0,-128.0,0,0.521,796.8,74.3,17
156033,1248818625,51.0,44.0,-126.0,0,0.529,796.8,74.3,17
156034,1248826621,51.0,45.0,-124.0,0,0.525,796.8,74.3,17
156035,1248834622,53.0,47.0,-121.0,0,0.532,796.8,74.3,17
156036,1248842625,57.0,50.0,-119.0,0,0.518,796.8,74.3,17
156037,1248850625,55.0,51.0,-117.0,0,0.514,796.8,74.3,17
156038,1248858625,61.0,53.0,-114.0,0,0.521,796.8,74.3,17
156039,1248866625,64.0,56.0,-111.0,0,0.516,796.8,74.3,17
156040,1248874625,68.0,59.0,-108.0,0,0.511,796.8,74.3,17
156041,1248882625,68.0,61.0,-105.0,0,0.506,796.8,74.3,17
156042,1248890625,71.0,63.0,-102.0,0,0.502,796.8,74.3,17
156043,1248898625,77.0,67.0,-99.0,0,0.497,796.8,74.3,17
156044,1248906625,80.0,70.0,-96.0,0,0.492,796.8,74.3,17
156045,1248914625,81.0,73.0,-92.0,0,0.497,796.8,74.3,17
156046,1248922625,86.0,76.0,-89.0,0,0.48,796.8,74.3,17
156047,1248930625,91.0,80.0,-85.0,0,0.485,796.8,74.3,17
156048,1248938625,92.0,83.0,-81.0,0,0.479,796.8,74.3,17
156049,1248946623,95.0,86.0,-78.0,0,0.463,796.8,74.3,17
156050,1248954625,97.0,88.0,-74.0,0,0.467,796.8,74.3,17
156051,1248962625,99.0,91.0,-71.0,0,0.451,796.8,74.3,17
156052,1248970623,100.0,93.0,-68.0,0,0.447,796.8,74.3,17
156053,1248978625,104.0,96.0,-65.0,0,0.442,796.8,74.3,17
156054,1248986625,104.0,98.0,-62.0,0,0.437,796.8,74.3,17
156055,1248994625,111.0,101.0,-59.0,0,0.432,796.8,74.3,17
156056,1249002625,110.0,103.0,-56.0,0,0.427,796.8,74.3,17
156057,1249010625,111.0,105.0,-53.0,0,0.423,796.8,74.3,17
156058,1249018625,114.0,107.0,-51.0,0,0.408,796.8,74.3,17
156059,1249026625,115.0,109.0,-48.0,0,0.415,796.8,74.3,17
156060,1249034621,119.0,112.0,-46.0,0,0.401,796.8,74.3,17
156061,1249042621,123.0,114.0,-43.0,0,0.407,796.8,74.3,17
156062,1249050625,131.0,118.0,-40.0,0,0.402,796.8,74.3,17
156063,1249058625,146.0,125.0,-36.0,0,0.407,796.8,74.3,17
156064,1249066625,164.0,134.0,-30.0,0,0.421,796.8,74.3,17
156065,1249074625,184.0,146.0,-22.0,0,0.432,796.8,74.3,17
156066,1249082625,211.0,162.0,-12.0,0,0.441,796.8,74.3,17
156067,1249090625,238.0,181.0,0.0,0,0.446,796.8,74.3,17
156068,1249098622,271.0,202.0,15.0,0,0.496,796.8,74.3,17
156069,1249106625,308.0,228.0,32.0,0,0.539,796.8,74.3,17
156070,1249114625,340.0,255.0,53.0,0,0.6,796.8,74.3,17
156071,1249122625,370.0,283.0,75.0,0,0.641,796.8,74.3,17
156072,1249130625,400.0,311.0,99.0,0,0.689,796.8,74.3,17
156073,1249138625,428.0,340.0,123.0,0,0.727,796.8,74.3,17
156074,1249146625,456.0,368.0,148.0,0,0.769,796.8,74.3,17
156075,1249154624,478.0,395.0,174.0,0,0.808,796.8,74.3,17
156076,1249162622,499.0,420.0,198.0,0,0.828,796.8,74.3,17
156077,1249170625,508.0,441.0,222.0,0,0.852,796.8,74.3,17
156078,1249178625,519.0,460.0,243.0,0,0.854,796.8,74.3,17
156079,1249186622,524.0,476.0,262.0,0,0.855,796.8,74.3,17
156080,1249194622,521.0,487.0,278.0,0,0.842,796.8,74.3,17
156081,1249202625,518.0,494.0,292.0,0,0.831,796.8,74.3,17
156082,1249210623,509.0,498.0,301.0,0,0.784,796.8,74.3,17
156083,1249218625,497.0,498.0,308.0,0,0.764,796.8,74.3,17
156084,1249226625,487.0,495.0,311.0,0,0.72,796.8,74.3,17
156085,1249234621,476.0,490.0,311.0,1,0.688,796.8,74.3,17
156086,1249242625,456.0,482.0,308.0,0,0.718,796.8,74.3,17
156087,1249250625,442.0,472.0,303.0,0,0.738,796.8,74.3,17
156088,1249258625,424.0,461.0,296.0,0,0.758,796.8,74.3,17
156089,1249266625,406.0,447.0,286.0,0,0.786,796.8,74.3,17
156090,1249274625,383.0,432.0,274.0,0,0.8,796.8,74.3,17
156091,1249282625,365.0,416.0,260.0,0,0.811,796.8,74.3,17
156092,1249290625,341.0,398.0,245.0,0,0.809,796.8,74.3,17
156093,1249298625,320.0,379.0,229.0,0,0.804,796.8,74.3,17
156094,1249306624,301.0,360.0,211.0,0,0.803,796.8,74.3,17
156095,1249314625,279.0,340.0,193.0,0,0.783,796.8,74.3,17
156096,1249322622,253.0,319.0,173.0,0,0.773,796.8,74.3,17
156097,1249330625,232.0,298.0,153.0,0,0.746,796.8,74.3,17
156098,1249338625,214.0,278.0,133.0,0,0.717,796.8,74.3,17
156099,1249346625,194.0,257.0,112.0,0,0.691,796.8,74.3,17
156100,1249354621,175.0,237.0,92.0,0,0.653,796.8,74.3,17
156101,1249362622,160.0,219.0,72.0,0,0.621,796.8,74.3,17
156102,1249370625,144.0,201.0,52.0,0,0.589,796.8,74.3,17
156103,1249378625,130.0,183.0,34.0,0,0.547,796.8,74.3,17
156104,1249386622,119.0,168.0,16.0,0,0.521,796.8,74.3,17
156105,1249394625,110.0,154.0,-1.0,0,0.494,796.8,74.3,17
156106,1249402625,102.0,141.0,-16.0,0,0.498,796.8,74.3,17
156107,1249410625,92.0,129.0,-30.0,0,0.509,796.8,74.3,17
156108,1249418623,91.0,120.0,-43.0,0,0.518,796.8,74.3,17
156109,1249426624,83.0,111.0,-55.0,0,0.527,796.8,74.3,17
156110,1249434623,84.0,104.0,-64.0,0,0.508,796.8,74.3,17
156111,1249442622,79.0,98.0,-73.0,0,0.522,796.8,74.3,17
156112,1249450623,75.0,93.0,-81.0,0,0.524,796.8,74.3,17
156113,1249458625,69.0,87.0,-88.0,0,0.523,796.8,74.3,17
156114,1249466625,69.0,83.0,-94.0,0,0.521,796.8,74.3,17
156115,1249474625,66.0,79.0,-99.0,0,0.518,796.8,74.3,17
156116,1249482625,64.0,75.0,-103.0,0,0.513,796.8,74.3,17
156117,1249490624,62.0,72.0,-107.0,0,0.519,796.8,74.3,17
156118,1249498621,58.0,69.0,-111.0,0,0.525,796.8,74.3,17
156119,1249506625,55.0,65.0,-114.0,0,0.519,796.8,74.3,17
156120,1249514625,52.0,62.0,-117.0,0,0.523,796.8,74.3,17
156121,1249522625,52.0,60.0,-119.0,0,0.515,796.8,74.3,17
156122,1249530621,47.0,57.0,-122.0,0,0.531,796.8,74.3,17
156123,1249538625,48.0,54.0,-124.0,0,0.523,796.8,74.3,17
156124,1249546625,42.0,51.0,-126.0,0,0.526,796.8,74.3,17
156125,1249554625,39.0,48.0,-128.0,0,0.529,796.8,74.3,17
156126,1249562622,38.0,46.0,-130.0,0,0.532,796.8,74.3,17
156127,1249570625,33.0,43.0,-132.0,0,0.535,796.8,74.3,17
156128,1249578623,34.0,41.0,-134.0,0,0.538,796.8,74.3,17
156129,1249586625,33.0,39.0,-136.0,0,0.541,796.8,74.3,17
156130,1249594625,34.0,38.0,-137.0,0,0.531,796.8,74.3,17
156131,1249602621,30.0,36.0,-138.0,0,0.533,796.8,74.3,17
156132,1249610623,27.0,34.0,-139.0,0,0.534,796.8,74.3,17
156133,1249618623,30.0,33.0,-140.0,0,0.536,796.8,74.3,17
156134,1249626625,28.0,32.0,-140.0,1,0.525,796.8,74.3,17
156135,1249634624,30.0,31.0,-141.0,0,0.537,796.8,74.3,17
156136,1249642625,28.0,30.0,-141.0,1,0.527,796.8,74.3,17
156137,1249650625,29.0,30.0,-141.0,0,0.527,796.8,74.3,17
156138,1249658623,28.0,30.0,-141.0,0,0.527,796.8,74.3,17
156139,1249666623,32.0,30.0,-140.0,0,0.535,796.8,74.3,17
156140,1249674625,30.0,30.0,-139.0,0,0.534,796.8,74.3,17
156141,1249682625,33.0,31.0,-139.0,1,0.523,796.8,74.3,17
156142,1249690623,34.0,32.0,-137.0,0,0.541,796.8,74.3,17
156143,1249698625,34.0,32.0,-136.0,0,0.529,796.8,74.3,17
156144,1249706625,39.0,34.0,-135.0,0,0.528,796.8,74.3,17
156145,1249714625,37.0,35.0,-133.0,0,0.535,796.8,74.3,17
156146,1249722623,42.0,36.0,-131.0,0,0.532,796.8,74.3,17
156147,1249730625,48.0,39.0,-129.0,0,0.529,796.8,74.3,17
156148,1249738621,47.0,41.0,-126.0,0,0.535,796.8,74.3,17
156149,1249746625,52.0,44.0,-123.0,0,0.531,796.8,74.3,17
156150,1249754625,58.0,47.0,-120.0,0,0.526,796.8,74.3,17
156151,1249762625,64.0,51.0,-117.0,0,0.521,796.8,74.3,17
156152,1249770622,66.0,55.0,-113.0,0,0.526,796.8,74.3,17
156153,1249778624,68.0,58.0,-109.0,0,0.52,796.8,74.3,17
156154,1249786624,67.0,60.0,-105.0,0,0.514,796.8,74.3,17
156155,1249794625,72.0,63.0,-102.0,0,0.498,796.8,74.3,17
156156,1249802625,73.0,65.0,-99.0,0,0.493,796.8,74.3,17
156157,1249810625,81.0,69.0,-95.0,0,0.498,796.8,74.3,17
156158,1249818625,83.0,73.0,-91.0,0,0.491,796.8,74.3,17
156159,1249826621,84.0,75.0,-88.0,0,0.475,796.8,74.3,17
156160,1249834625,87.0,78.0,-84.0,0,0.48,796.8,74.3,17
156161,1249842625,93.0,82.0,-80.0,0,0.474,796.8,74.3,17
156162,1249850625,93.0,84.0,-77.0,0,0.458,796.8,74.3,17
156163,1249858623,94.0,87.0,-74.0,0,0.453,796.8,74.3,17
156164,1249866625,100.0,90.0,-70.0,0,0.458,796.8,74.3,17
156165,1249874625,100.0,92.0,-67.0,0,0.442,796.8,74.3,17
156166,1249882622,101.0,95.0,-64.0,0,0.437,796.8,74.3,17
156167,1249890624,105.0,97.0,-61.0,0,0.432,796.8,74.3,17
156168,1249898621,107.0,99.0,-58.0,0,0.428,796.8,74.3,17
156169,1249906620,108.0,102.0,-55.0,0,0.423,796.8,74.3,17
156170,1249914625,112.0,104.0,-52.0,0,0.418,796.8,74.3,17
156171,1249922624,115.0,107.0,-50.0,0,0.404,796.8,74.3,17
156172,1249930624,109.0,107.0,-47.0,0,0.41,796.8,74.3,17
156173,1249938625,118.0,110.0,-45.0,0,0.396,796.8,74.3,17
156174,1249946622,121.0,113.0,-42.0,0,0.402,796.8,74.3,17
156175,1249954625,120.0,114.0,-40.0,0,0.388,796.8,74.3,17
156176,1249962625,126.0,117.0,-37.0,0,0.394,796.8,74.3,17
156177,1249970620,135.0,122.0,-34.0,0,0.39,796.8,74.3,17
156178,1249978625,151.0,129.0,-30.0,0,0.395,796.8,74.3,17
156179,1249986625,171.0,139.0,-24.0,0,0.41,796.8,74.3,17
156180,1249994620,191.0,152.0,-16.0,0,0.423,796.8,74.3,17
156181,1250002625,217.0,167.0,-6.0,0,0.432,796.8,74.3,17
156182,1250010625,244.0,186.0,7.0,0,0.479,796.8,74.3,17
156183,1250018623,281.0,209.0,22.0,0,0.521,796.8,74.3,17
156184,1250026621,318.0,235.0,40.0,0,0.574,796.8,74.3,17
156185,1250034625,354.0,264.0,62.0,0,0.635,796.8,74.3,17
156186,1250042621,383.0,293.0,85.0,0,0.678,796.8,74.3,17
156187,1250050620,424.0,325.0,110.0,0,0.727,796.8,74.3,17
156188,1250058621,449.0,355.0,136.0,0,0.77,796.8,74.3,17
156189,1250066625,476.0,384.0,163.0,0,0.81,796.8,74.3,17
156190,1250074622,498.0,412.0,189.0,0,0.837,796.8,74.3,17
156191,1250082625,516.0,437.0,215.0,0,0.863,796.8,74.3,17
156192,1250090623,527.0,459.0,239.0,0,0.873,796.8,74.3,17
156193,1250098621,536.0,478.0,260.0,0,0.87,796.8,74.3,17
156194,1250106625,540.0,493.0,280.0,0,0.875,796.8,74.3,17
156195,1250114625,540.0,504.0,296.0,0,0.852,796.8,74.3,17
156196,1250122624,534.0,511.0,309.0,0,0.829,796.8,74.3,17
156197,1250130625,528.0,515.0,319.0,0,0.801,796.8,74.3,17
156198,1250138622,519.0,516.0,326.0,0,0.769,796.8,74.3,17
156199,1250146621,506.0,514.0,329.0,0,0.724,796.8,74.3,17
156200,1250154623,490.0,508.0,329.0,1,0.691,796.8,74.3,17
156201,1250162621,476.0,500.0,327.0,0,0.71,796.8,74.3,17
156202,1250170625,453.0,489.0,321.0,0,0.751,796.8,74.3,17
156203,1250178625,437.0,476.0,313.0,0,0.769,796.8,74.3,17
156204,1250186625,423.0,463.0,302.0,0,0.796,796.8,74.3,17
156205,1250194625,401.0,448.0,290.0,0,0.798,796.8,74.3,17
156206,1250202625,381.0,432.0,277.0,0,0.798,796.8,74.3,17
156207,1250210625,357.0,414.0,261.0,0,0.813,796.8,74.3,17
156208,1250218625,336.0,395.0,244.0,0,0.805,796.8,74.3,17
156209,1250226621,316.0,376.0,227.0,0,0.788,796.8,74.3,17
156210,1250234624,290.0,355.0,208.0,0,0.782,796.8,74.3,17
156211,1250242625,266.0,333.0,188.0,0,0.764,796.8,74.3,17
156212,1250250623,243.0,311.0,167.0,0,0.742,796.8,74.3,17
156213,1250258625,222.0,290.0,146.0,0,0.712,796.8,74.3,17
156214,1250266623,198.0,268.0,124.0,0,0.686,796.8,74.3,17
156215,1250274622,180.0,246.0,103.0,0,0.648,796.8,74.3,17
156216,1250282625,166.0,227.0,82.0,0,0.616,796.8,74.3,17
156217,1250290623,151.0,208.0,61.0,0,0.584,796.8,74.3,17
156218,1250298622,135.0,191.0,42.0,0,0.543,796.8,74.3,17
156219,1250306623,124.0,174.0,23.0,0,0.517,796.8,74.3,17
156220,1250314625,112.0,159.0,6.0,0,0.487,796.8,74.3,17
156221,1250322625,100.0,145.0,-11.0,0,0.508,796.8,74.3,17
156222,1250330625,92.0,132.0,-26.0,0,0.511,796.8,74.3,17
156223,1250338625,85.0,121.0,-40.0,0,0.521,796.8,74.3,17
156224,1250346621,78.0,110.0,-53.0,0,0.53,796.8,74.3,17
156225,1250354622,76.0,102.0,-65.0,0,0.538,796.8,74.3,17
156226,1250362625,71.0,94.0,-75.0,0,0.532,796.8,74.3,17
156227,1250370624,67.0,88.0,-84.0,0,0.534,796.8,74.3,17
156228,1250378621,61.0,81.0,-92.0,0,0.535,796.8,74.3,17
156229,1250386625,60.0,76.0,-99.0,0,0.534,796.8,74.3,17
156230,1250394625,58.0,72.0,-105.0,0,0.532,796.8,74.3,17
156231,1250402625,57.0,68.0,-110.0,0,0.529,796.8,74.3,17
156232,1250410625,48.0,63.0,-115.0,0,0.535,796.8,74.3,17
156233,1250418625,48.0,60.0,-119.0,0,0.53,796.8,74.3,17
156234,1250426622,44.0,56.0,-123.0,0,0.536,796.8,74.3,17
156235,1250434625,40.0,52.0,-126.0,0,0.529,796.8,74.3,17
156236,1250442625,37.0,48.0,-130.0,0,0.545,796.8,74.3,17
156237,1250450625,28.0,43.0,-133.0,0,0.538,796.8,74.3,17
156238,1250458625,29.0,40.0,-136.0,0,0.542,796.8,74.3,17
156239,1250466624,24.0,36.0,-139.0,0,0.546,796.8,74.3,17
156240,1250474625,24.0,33.0,-142.0,0,0.549,796.8,74.3,17
156241,1250482625,25.0,31.0,-144.0,0,0.541,796.8,74.3,17
156242,1250490621,19.0,28.0,-147.0,0,0.555,796.8,74.3,17
156243,1250498625,18.0,26.0,-149.0,0,0.547,796.8,74.3,17
156244,1250506621,16.0,23.0,-150.0,0,0.538,796.8,74.3,17
156245,1250514621,16.0,22.0,-152.0,0,0.55,796.8,74.3,17
156246,1250522625,11.0,19.0,-153.0,0,0.541,796.8,74.3,17
156247,1250530621,17.0,19.0,-154.0,0,0.542,796.8,74.3,17
156248,1250538622,14.0,17.0,-155.0,0,0.543,796.8,74.3,17
156249,1250546622,12.0,16.0,-156.0,0,0.544,796.8,74.3,17
156250,1250554625,16.0,16.0,-156.0,1,0.534,796.8,74.3,17
156251,1250562625,16.0,16.0,-155.0,0,0.541,796.8,74.3,17
156252,1250570621,20.0,17.0,-155.0,1,0.531,796.8,74.3,17
156253,1250578625,16.0,17.0,-154.0,0,0.539,796.8,74.3,17
156254,1250586625,20.0,18.0,-153.0,0,0.537,796.8,74.3,17
156255,1250594621,22.0,19.0,-152.0,0,0.535,796.8,74.3,17
156256,1250602621,26.0,20.0,-150.0,0,0.542,796.8,74.3,17
156257,1250610620,24.0,21.0,-148.0,0,0.539,796.8,74.3,17
156258,1250618625,33.0,24.0,-146.0,0,0.536,796.8,74.3,17
156259,1250626625,36.0,27.0,-143.0,0,0.541,796.8,74.3,17
156260,1250634625,41.0,30.0,-140.0,0,0.537,796.8,74.3,17
156261,1250642625,43.0,33.0,-136.0,0,0.541,796.8,74.3,17
156262,1250650621,49.0,37.0,-133.0,0,0.527,796.8,74.3,17
156263,1250658625,52.0,41.0,-129.0,0,0.531,796.8,74.3,17
156264,1250666625,54.0,44.0,-125.0,0,0.525,796.8,74.3,17
156265,1250674625,60.0,48.0,-121.0,0,0.519,796.8,74.3,17
156266,1250682622,61.0,51.0,-117.0,0,0.513,796.8,74.3,17
156267,1250690625,68.0,55.0,-112.0,0,0.516,796.8,74.3,17
156268,1250698624,72.0,59.0,-108.0,0,0.5,796.8,74.3,17
156269,1250706624,73.0,63.0,-104.0,0,0.494,796.8,74.3,17
156270,1250714625,78.0,66.0,-99.0,0,0.497,796.8,74.3,17
156271,1250722621,81.0,70.0,-95.0,0,0.481,796.8,74.3,17
156272,1250730623,88.0,74.0,-91.0,0,0.475,796.8,74.3,17
156273,1250738625,88.0,78.0,-87.0,0,0.469,796.8,74.3,17
156274,1250746625,94.0,82.0,-82.0,0,0.472,796.8,74.3,17
156275,1250754625,92.0,84.0,-78.0,0,0.456,796.8,74.3,17
156276,1250762625,97.0,87.0,-74.0,0,0.45,796.8,74.3,17
156277,1250770625,100.0,90.0,-71.0,0,0.435,796.8,74.3,17
156278,1250778621,102.0,93.0,-67.0,0,0.44,796.8,74.3,17
156279,1250786621,103.0,96.0,-64.0,0,0.425,796.8,74.3,17
156280,1250794625,104.0,98.0,-61.0,0,0.421,796.8,74.3,17
156281,1250802625,111.0,101.0,-57.0,0,0.425,796.8,74.3,17
156282,1250810623,111.0,103.0,-54.0,0,0.41,796.8,74.3,17
156283,1250818625,115.0,106.0,-51.0,0,0.406,796.8,74.3,17
156284,1250826622,116.0,109.0,-48.0,0,0.402,796.8,74.3,17
156285,1250834625,116.0,110.0,-46.0,0,0.388,796.8,74.3,17
156286,1250842625,120.0,113.0,-43.0,0,0.394,796.8,74.3,17
156287,1250850620,124.0,115.0,-40.0,0,0.389,796.8,74.3,17
156288,1250858623,126.0,118.0,-37.0,0,0.385,796.8,74.3,17
156289,1250866625,126.0,120.0,-35.0,0,0.371,796.8,74.3,17
156290,1250874625,133.0,123.0,-32.0,0,0.377,796.8,74.3,17
156291,1250882625,133.0,125.0,-29.0,0,0.372,796.8,74.3,17
156292,1250890623,138.0,129.0,-26.0,0,0.367,796.8,74.3,17
156293,1250898625,138.0,131.0,-24.0,0,0.353,796.8,74.3,17
156294,1250906625,142.0,134.0,-21.0,0,0.359,796.8,74.3,17
156295,1250914625,149.0,137.0,-18.0,0,0.354,796.8,74.3,17
156296,1250922625,156.0,142.0,-14.0,0,0.359,796.8,74.3,17
156297,1250930625,171.0,149.0,-10.0,0,0.358,796.8,74.3,17
156298,1250938622,189.0,159.0,-4.0,0,0.389,796.8,74.3,17
156299,1250946625,213.0,172.0,4.0,0,0.424,796.8,74.3,17
156300,1250954625,240.0,188.0,14.0,0,0.462,796.8,74.3,17
156301,1250962625,271.0,208.0,27.0,0,0.513,796.8,74.3,17
156302,1250970623,302.0,231.0,43.0,0,0.566,796.8,74.3,17
156303,1250978625,340.0,257.0,62.0,0,0.619,796.8,74.3,17
156304,1250986625,368.0,284.0,82.0,0,0.658,796.8,74.3,17
156305,1250994625,401.0,313.0,105.0,0,0.711,796.8,74.3,17
156306,1251002625,430.0,341.0,129.0,0,0.751,796.8,74.3,17
156307,1251010625,452.0,368.0,153.0,0,0.782,796.8,74.3,17
156308,1251018623,470.0,393.0,177.0,0,0.811,796.8,74.3,17
156309,1251026625,487.0,416.0,200.0,0,0.829,796.8,74.3,17
156310,1251034625,497.0,435.0,222.0,0,0.843,796.8,74.3,17
156311,1251042625,509.0,453.0,242.0,0,0.845,796.8,74.3,17
156312,1251050625,514.0,468.0,260.0,0,0.842,796.8,74.3,17
156313,1251058623,513.0,479.0,275.0,0,0.825,796.8,74.3,17
156314,1251066622,506.0,485.0,287.0,0,0.802,796.8,74.3,17
156315,1251074625,500.0,489.0,296.0,0,0.773,796.8,74.3,17
156316,1251082624,485.0,488.0,302.0,0,0.741,796.8,74.3,17
156317,1251090625,473.0,484.0,304.0,0,0.696,796.8,74.3,17
156318,1251098622,460.0,478.0,304.0,1,0.673,796.8,74.3,17
156319,1251106625,444.0,470.0,301.0,0,0.702,796.8,74.3,17
156320,1251114623,428.0,460.0,295.0,0,0.731,796.8,74.3,17
156321,1251122625,409.0,448.0,286.0,0,0.758,796.8,74.3,17
156322,1251130624,389.0,433.0,276.0,0,0.761,796.8,74.3,17
156323,1251138625,368.0,418.0,264.0,0,0.771,796.8,74.3,17
156324,1251146625,346.0,400.0,250.0,0,0.778,796.8,74.3,17
156325,1251154621,326.0,382.0,234.0,0,0.781,796.8,74.3,17
156326,1251162622,304.0,363.0,217.0,0,0.771,796.8,74.3,17
156327,1251170623,279.0,343.0,199.0,0,0.758,796.8,74.3,17
156328,1251178622,259.0,322.0,180.0,0,0.741,796.8,74.3,17
156329,1251186625,239.0,302.0,160.0,0,0.722,796.8,74.3,17
156330,1251194625,216.0,281.0,140.0,0,0.694,796.8,74.3,17
156331,1251202625,197.0,261.0,119.0,0,0.67,796.8,74.3,17
156332,1251210625,183.0,242.0,99.0,0,0.634,796.8,74.3,17
156333,1251218622,167.0,224.0,80.0,0,0.599,796.8,74.3,17
156334,1251226621,155.0,207.0,61.0,0,0.572,796.8,74.3,17
156335,1251234622,140.0,191.0,43.0,0,0.539,796.8,74.3,17
156336,1251242621,126.0,175.0,26.0,0,0.508,796.8,74.3,17
156337,1251250624,118.0,161.0,9.0,0,0.486,796.8,74.3,17
156338,1251258625,108.0,148.0,-6.0,0,0.478,796.8,74.3,17
156339,1251266621,106.0,138.0,-20.0,0,0.487,796.8,74.3,17
156340,1251274624,98.0,128.0,-32.0,0,0.484,796.8,74.3,17
156341,1251282625,96.0,121.0,-43.0,0,0.489,796.8,74.3,17
156342,1251290625,92.0,114.0,-53.0,0,0.492,796.8,74.3,17
156343,1251298625,93.0,109.0,-61.0,0,0.483,796.8,74.3,17
156344,1251306625,91.0,104.0,-68.0,0,0.482,796.8,74.3,17
156345,1251314624,85.0,100.0,-74.0,0,0.48,796.8,74.3,17
156346,1251322625,84.0,96.0,-79.0,0,0.477,796.8,74.3,17
156347,1251330625,81.0,92.0,-84.0,0,0.485,796.8,74.3,17
156348,1251338625,79.0,89.0,-88.0,0,0.48,796.8,74.3,17
156349,1251346625,77.0,86.0,-91.0,0,0.474,796.8,74.3,17
156350,1251354625,69.0,82.0,-95.0,0,0.49,796.8,74.3,17
156351,1251362625,65.0,78.0,-98.0,0,0.485,796.8,74.3,17
156352,1251370625,64.0,74.0,-102.0,0,0.501,796.8,74.3,17
156353,1251378621,64.0,72.0,-104.0,0,0.483,796.8,74.3,17
156354,1251386625,53.0,67.0,-108.0,0,0.509,796.8,74.3,17
156355,1251394625,58.0,65.0,-110.0,0,0.492,796.8,74.3,17
156356,1251402625,51.0,62.0,-113.0,0,0.506,796.8,74.3,17
156357,1251410625,44.0,57.0,-116.0,0,0.51,796.8,74.3,17
156358,1251418625,44.0,54.0,-118.0,0,0.503,796.8,74.3,17
156359,1251426625,41.0,51.0,-121.0,0,0.517,796.8,74.3,17
156360,1251434625,40.0,48.0,-123.0,0,0.51,796.8,74.3,17
156361,1251442624,34.0,45.0,-126.0,0,0.524,796.8,74.3,17
156362,1251450625,35.0,42.0,-128.0,0,0.516,796.8,74.3,17
156363,1251458625,32.0,40.0,-130.0,0,0.519,796.8,74.3,17
156364,1251466620,36.0,39.0,-132.0,0,0.521,796.8,74.3,17
156365,1251474625,34.0,38.0,-133.0,0,0.513,796.8,74.3,17
156366,1251482620,36.0,37.0,-133.0,1,0.503,796.8,74.3,17
156367,1251490625,37.0,37.0,-134.0,0,0.513,796.8,74.3,17
156368,1251498625,36.0,37.0,-134.0,1,0.503,796.8,74.3,17
156369,1251506625,40.0,38.0,-133.0,0,0.511,796.8,74.3,17
156370,1251514625,40.0,38.0,-132.0,0,0.51,796.8,74.3,17
156371,1251522625,42.0,39.0,-131.0,0,0.508,796.8,74.3,17
156372,1251530620,44.0,40.0,-130.0,0,0.506,796.8,74.3,17
156373,1251538623,46.0,42.0,-128.0,0,0.513,796.8,74.3,17
156374,1251546621,49.0,43.0,-127.0,0,0.501,796.8,74.3,17
156375,1251554625,51.0,45.0,-125.0,0,0.508,796.8,74.3,17
156376,1251562625,50.0,46.0,-123.0,0,0.505,796.8,74.3,17
156377,1251570625,53.0,48.0,-120.0,0,0.51,796.8,74.3,17
156378,1251578622,56.0,50.0,-118.0,0,0.497,796.8,74.3,17
156379,1251586625,57.0,52.0,-116.0,0,0.494,796.8,74.3,17
156380,1251594625,60.0,54.0,-113.0,0,0.499,796.8,74.3,17
156381,1251602625,62.0,56.0,-111.0,0,0.486,796.8,74.3,17
156382,1251610621,67.0,58.0,-108.0,0,0.492,796.8,74.3,17
156383,1251618621,64.0,60.0,-105.0,0,0.487,796.8,74.3,17
156384,1251626621,67.0,62.0,-103.0,0,0.474,796.8,74.3,17
156385,1251634624,68.0,63.0,-101.0,0,0.471,796.8,74.3,17
156386,1251642625,72.0,65.0,-98.0,0,0.476,796.8,74.3,17
156387,1251650625,77.0,68.0,-95.0,0,0.472,796.8,74.3,17
156388,1251658625,77.0,70.0,-92.0,0,0.467,796.8,74.3,17
156389,1251666625,80.0,73.0,-90.0,0,0.454,796.8,74.3,17
156390,1251674625,85.0,76.0,-87.0,0,0.459,796.8,74.3,17
156391,1251682625,87.0,78.0,-84.0,0,0.455,796.8,74.3,17
156392,1251690625,92.0,82.0,-80.0,0,0.459,796.8,74.3,17
156393,1251698625,92.0,84.0,-77.0,0,0.444,796.8,74.3,17
156394,1251706625,96.0,87.0,-74.0,0,0.439,796.8,74.3,17
156395,1251714625,96.0,89.0,-71.0,0,0.434,796.8,74.3,17
156396,1251722625,97.0,91.0,-68.0,0,0.43,796.8,74.3,17
156397,1251730625,99.0,93.0,-65.0,0,0.425,796.8,74.3,17
156398,1251738625,98.0,94.0,-63.0,0,0.411,796.8,74.3,17
156399,1251746620,104.0,97.0,-60.0,0,0.417,796.8,74.3,17
156400,1251754625,105.0,99.0,-58.0,0,0.402,796.8,74.3,17
156401,1251762625,104.0,100.0,-56.0,0,0.398,796.8,74.3,17
156402,1251770625,107.0,102.0,-54.0,0,0.395,796.8,74.3,17
156403,1251778625,109.0,103.0,-52.0,0,0.391,796.8,74.3,17
156404,1251786625,108.0,105.0,-50.0,0,0.387,796.8,74.3,17
156405,1251794624,112.0,106.0,-48.0,0,0.383,796.8,74.3,17
156406,1251802625,116.0,109.0,-45.0,0,0.389,796.8,74.3,17
156407,1251810625,124.0,112.0,-43.0,0,0.374,796.8,74.3,17
156408,1251818625,127.0,116.0,-40.0,0,0.38,796.8,74.3,17
156409,1251826625,140.0,122.0,-36.0,0,0.384,796.8,74.3,17
156410,1251834625,154.0,130.0,-31.0,0,0.388,796.8,74.3,17
156411,1251842625,170.0,139.0,-25.0,0,0.39,796.8,74.3,17
156412,1251850625,193.0,152.0,-16.0,0,0.415,796.8,74.3,17
156413,1251858625,220.0,169.0,-6.0,0,0.441,796.8,74.3,17
156414,1251866623,250.0,188.0,7.0,0,0.492,796.8,74.3,17
156415,1251874620,283.0,211.0,23.0,0,0.545,796.8,74.3,17
156416,1251882622,315.0,237.0,41.0,0,0.59,796.8,74.3,17
156417,1251890621,349.0,264.0,62.0,0,0.644,796.8,74.3,17
156418,1251898621,380.0,292.0,85.0,0,0.691,796.8,74.3,17
156419,1251906625,408.0,320.0,108.0,0,0.726,796.8,74.3,17
156420,1251914625,438.0,349.0,133.0,0,0.77,796.8,74.3,17
156421,1251922625,460.0,376.0,158.0,0,0.802,796.8,74.3,17
156422,1251930625,482.0,401.0,183.0,0,0.83,796.8,74.3,17
156423,1251938625,496.0,424.0,207.0,0,0.847,796.8,74.3,17
156424,1251946625,507.0,444.0,229.0,0,0.854,796.8,74.3,17
156425,1251954621,513.0,461.0,249.0,0,0.856,796.8,74.3,17
156426,1251962625,515.0,474.0,266.0,0,0.843,796.8,74.3,17
156427,1251970625,511.0,483.0,281.0,0,0.833,796.8,74.3,17
156428,1251978623,508.0,489.0,292.0,0,0.798,796.8,74.3,17
156429,1251986625,499.0,492.0,300.0,0,0.767,796.8,74.3,17
156430,1251994623,486.0,490.0,305.0,0,0.733,796.8,74.3,17
156431,1252002625,472.0,486.0,307.0,0,0.698,796.8,74.3,17
156432,1252010625,456.0,479.0,305.0,1,0.696,796.8,74.3,17
156433,1252018625,436.0,468.0,301.0,0,0.714,796.8,74.3,17
156434,1252026625,417.0,456.0,293.0,0,0.754,796.8,74.3,17
156435,1252034625,397.0,442.0,284.0,0,0.759,796.8,74.3,17
156436,1252042621,378.0,426.0,272.0,0,0.781,796.8,74.3,17
156437,1252050625,358.0,410.0,258.0,0,0.789,796.8,74.3,17
156438,1252058625,334.0,391.0,243.0,0,0.784,796.8,74.3,17
156439,1252066625,319.0,374.0,226.0,0,0.784,796.8,74.3,17
156440,1252074625,292.0,354.0,209.0,0,0.765,796.8,74.3,17
156441,1252082625,265.0,332.0,190.0,0,0.757,796.8,74.3,17
156442,1252090621,247.0,312.0,170.0,0,0.738,796.8,74.3,17
156443,1252098625,227.0,291.0,150.0,0,0.711,796.8,74.3,17
156444,1252106623,207.0,271.0,130.0,0,0.682,796.8,74.3,17
156445,1252114625,188.0,251.0,109.0,0,0.658,796.8,74.3,17
156446,1252122623,171.0,231.0,89.0,0,0.621,796.8,74.3,17
156447,1252130622,151.0,212.0,69.0,0,0.592,796.8,74.3,17
156448,1252138621,137.0,194.0,50.0,0,0.557,796.8,74.3,17
156449,1252146625,124.0,177.0,31.0,0,0.531,796.8,74.3,17
156450,1252154625,119.0,163.0,13.0,0,0.5,796.8,74.3,17
156451,1252162625,108.0,150.0,-3.0,0,0.485,796.8,74.3,17
156452,1252170625,99.0,137.0,-17.0,0,0.485,796.8,74.3,17
156453,1252178625,97.0,128.0,-31.0,0,0.504,796.8,74.3,17
156454,1252186625,94.0,119.0,-42.0,0,0.489,796.8,74.3,17
156455,1252194624,89.0,112.0,-53.0,0,0.505,796.8,74.3,17
156456,1252202621,90.0,107.0,-61.0,0,0.485,796.8,74.3,17
156457,1252210625,86.0,102.0,-69.0,0,0.497,796.8,74.3,17
156458,1252218625,84.0,97.0,-75.0,0,0.485,796.8,74.3,17
156459,1252226621,81.0,93.0,-81.0,0,0.494,796.8,74.3,17
156460,1252234625,81.0,90.0,-86.0,0,0.491,796.8,74.3,17
156461,1252242620,77.0,87.0,-90.0,0,0.486,796.8,74.3,17
156462,1252250624,74.0,84.0,-93.0,0,0.48,796.8,74.3,17
156463,1252258625,74.0,82.0,-96.0,0,0.485,796.8,74.3,17
156464,1252266625,69.0,79.0,-99.0,0,0.49,796.8,74.3,17
156465,1252274625,64.0,75.0,-102.0,0,0.494,796.8,74.3,17
156466,1252282621,64.0,72.0,-105.0,0,0.499,796.8,74.3,17
156467,1252290625,65.0,71.0,-107.0,0,0.491,796.8,74.3,17
156468,1252298625,56.0,67.0,-109.0,0,0.494,796.8,74.3,17
156469,1252306625,56.0,64.0,-111.0,0,0.497,796.8,74.3,17
156470,1252314625,54.0,62.0,-113.0,0,0.5,796.8,74.3,17
156471,1252322625,52.0,59.0,-115.0,0,0.503,796.8,74.3,17
156472,1252330621,52.0,58.0,-117.0,0,0.506,796.8,74.3,17
156473,1252338624,45.0,55.0,-119.0,0,0.509,796.8,74.3,17
156474,1252346625,41.0,51.0,-121.0,0,0.511,796.8,74.3,17
156475,1252354620,40.0,49.0,-123.0,0,0.514,796.8,74.3,17
156476,1252362625,38.0,46.0,-125.0,0,0.517,796.8,74.3,17
156477,1252370625,36.0,44.0,-126.0,0,0.508,796.8,74.3,17
156478,1252378625,40.0,43.0,-128.0,0,0.52,796.8,74.3,17
156479,1252386625,41.0,42.0,-128.0,1,0.501,796.8,74.3,17
156480,1252394625,41.0,42.0,-129.0,0,0.511,796.8,74.3,17
156481,1252402624,39.0,41.0,-129.0,1,0.501,796.8,74.3,17
156482,1252410625,38.0,40.0,-129.0,0,0.501,796.8,74.3,17
156483,1252418622,41.0,41.0,-129.0,0,0.501,796.8,74.3,17
156484,1252426625,42.0,41.0,-129.0,0,0.5,796.8,74.3,17
156485,1252434625,41.0,41.0,-128.0,0,0.508,796.8,74.3,17
156486,1252442625,44.0,42.0,-127.0,0,0.506,796.8,74.3,17
156487,1252450625,45.0,42.0,-126.0,0,0.504,796.8,74.3,17
156488,1252458621,44.0,43.0,-125.0,0,0.503,796.8,74.3,17
156489,1252466625,47.0,44.0,-124.0,0,0.501,796.8,74.3,17
156490,1252474625,46.0,44.0,-122.0,0,0.507,796.8,74.3,17
156491,1252482623,49.0,46.0,-121.0,0,0.496,796.8,74.3,17
156492,1252490625,48.0,46.0,-119.0,0,0.502,796.8,74.3,17
156493,1252498621,52.0,48.0,-118.0,0,0.491,796.8,74.3,17
156494,1252506622,52.0,49.0,-116.0,0,0.497,796.8,74.3,17
156495,1252514625,57.0,51.0,-114.0,0,0.494,796.8,74.3,17
156496,1252522621,57.0,52.0,-112.0,0,0.491,796.8,74.3,17
156497,1252530625,60.0,54.0,-110.0,0,0.488,796.8,74.3,17
156498,1252538625,64.0,56.0,-107.0,0,0.493,796.8,74.3,17
156499,1252546625,65.0,59.0,-105.0,0,0.48,796.8,74.3,17
156500,1252554625,68.0,61.0,-102.0,0,0.485,796.8,74.3,17
156501,1252562621,72.0,64.0,-99.0,0,0.481,796.8,74.3,17
156502,1252570625,73.0,66.0,-96.0,0,0.476,796.8,74.3,17
156503,1252578625,75.0,68.0,-94.0,0,0.462,796.8,74.3,17
156504,1252586625,76.0,70.0,-91.0,0,0.468,796.8,74.3,17
156505,1252594621,77.0,72.0,-88.0,0,0.463,796.8,74.3,17
156506,1252602625,84.0,75.0,-85.0,0,0.458,796.8,74.3,17
156507,1252610621,84.0,77.0,-82.0,0,0.454,796.8,74.3,17
156508,1252618623,90.0,80.0,-79.0,0,0.449,796.8,74.3,17
156509,1252626625,92.0,83.0,-76.0,0,0.444,796.8,74.3,17
156510,1252634625,94.0,86.0,-73.0,0,0.439,796.8,74.3,17
156511,1252642621,97.0,88.0,-70.0,0,0.435,796.8,74.3,17
156512,1252650625,98.0,91.0,-67.0,0,0.43,796.8,74.3,17
156513,1252658625,101.0,93.0,-64.0,0,0.425,796.8,74.3,17
156514,1252666625,105.0,96.0,-61.0,0,0.42,796.8,74.3,17
156515,1252674625,105.0,98.0,-58.0,0,0.415,796.8,74.3,17
156516,1252682625,108.0,101.0,-55.0,0,0.41,796.8,74.3,17
156517,1252690625,115.0,104.0,-52.0,0,0.404,796.8,74.3,17
156518,1252698625,112.0,106.0,-49.0,0,0.399,796.8,74.3,17
156519,1252706621,120.0,109.0,-46.0,0,0.394,796.8,74.3,17
156520,1252714625,121.0,112.0,-43.0,0,0.388,796.8,74.3,17
156521,1252722621,120.0,114.0,-40.0,0,0.383,796.8,74.3,17
156522,1252730625,125.0,117.0,-38.0,0,0.368,796.8,74.3,17
156523,1252738625,127.0,119.0,-35.0,0,0.373,796.8,74.3,17
156524,1252746623,127.0,121.0,-32.0,0,0.368,796.8,74.3,17
156525,1252754625,127.0,123.0,-30.0,0,0.353,796.8,74.3,17
156526,1252762621,132.0,125.0,-28.0,0,0.349,796.8,74.3,17
156527,1252770625,132.0,127.0,-25.0,0,0.355,796.8,74.3,17
156528,1252778625,137.0,129.0,-23.0,0,0.34,796.8,74.3,17
156529,1252786624,149.0,134.0,-20.0,0,0.346,796.8,74.3,17
156530,1252794625,161.0,140.0,-16.0,0,0.363,796.8,74.3,17
156531,1252802624,182.0,151.0,-10.0,0,0.397,796.8,74.3,17
156532,1252810625,207.0,164.0,-2.0,0,0.434,796.8,74.3,17
156533,1252818625,231.0,180.0,8.0,0,0.474,796.8,74.3,17
156534,1252826625,265.0,201.0,21.0,0,0.528,796.8,74.3,17
156535,1252834625,299.0,225.0,37.0,0,0.584,796.8,74.3,17
156536,1252842623,328.0,250.0,56.0,0,0.639,796.8,74.3,17
156537,1252850625,369.0,279.0,77.0,0,0.686,796.8,74.3,17
156538,1252858623,402.0,309.0,100.0,0,0.732,796.8,74.3,17
156539,1252866620,434.0,339.0,125.0,0,0.777,796.8,74.3,17
156540,1252874625,466.0,370.0,151.0,0,0.814,796.8,74.3,17
156541,1252882625,486.0,398.0,178.0,0,0.848,796.8,74.3,17
156542,1252890625,511.0,425.0,204.0,0,0.868,796.8,74.3,17
156543,1252898625,527.0,450.0,229.0,0,0.883,796.8,74.3,17
156544,1252906625,535.0,471.0,252.0,0,0.888,796.8,74.3,17
156545,1252914622,545.0,489.0,273.0,0,0.887,796.8,74.3,17
156546,1252922623,548.0,503.0,292.0,0,0.882,796.8,74.3,17
156547,1252930621,548.0,514.0,308.0,0,0.864,796.8,74.3,17
156548,1252938622,540.0,520.0,320.0,0,0.828,796.8,74.3,17
156549,1252946623,534.0,524.0,329.0,0,0.797,796.8,74.3,17
156550,1252954624,524.0,524.0,335.0,0,0.762,796.8,74.3,17
156551,1252962625,511.0,521.0,338.0,0,0.726,796.8,74.3,17
156552,1252970625,496.0,515.0,337.0,1,0.702,796.8,74.3,17
156553,1252978625,478.0,506.0,334.0,0,0.722,796.8,74.3,17
156554,1252986620,462.0,495.0,328.0,0,0.753,796.8,74.3,17
156555,1252994624,440.0,482.0,319.0,0,0.782,796.8,74.3,17
156556,1253002623,421.0,467.0,308.0,0,0.797,796.8,74.3,17
156557,1253010623,401.0,451.0,295.0,0,0.809,796.8,74.3,17
156558,1253018625,379.0,434.0,280.0,0,0.816,796.8,74.3,17
156559,1253026626,356.0,415.0,264.0,0,0.812,796.8,74.3,17
156560,1253034623,333.0,395.0,246.0,0,0.811,796.8,74.3,17
156561,1253042622,309.0,374.0,227.0,0,0.798,796.8,74.3,17
156562,1253050620,287.0,353.0,208.0,0,0.777,796.8,74.3,17
156563,1253058625,262.0,331.0,187.0,0,0.764,796.8,74.3,17
156564,1253066625,233.0,307.0,165.0,0,0.741,796.8,74.3,17
156565,1253074625,219.0,286.0,143.0,0,0.709,796.8,74.3,17
156566,1253082624,199.0,265.0,121.0,0,0.677,796.8,74.3,17
156567,1253090625,173.0,243.0,99.0,0,0.644,796.8,74.3,17
156568,1253098625,160.0,223.0,78.0,0,0.606,796.8,74.3,17
156569,1253106625,143.0,203.0,57.0,0,0.575,796.8,74.3,17
156570,1253114625,127.0,185.0,37.0,0,0.54,796.8,74.3,17
156571,1253122625,115.0,168.0,18.0,0,0.508,796.8,74.3,17
156572,1253130625,105.0,153.0,0.0,0,0.505,796.8,74.3,17
156573,1253138620,95.0,139.0,-17.0,0,0.519,796.8,74.3,17
156574,1253146621,88.0,126.0,-32.0,0,0.523,796.8,74.3,17
156575,1253154625,83.0,116.0,-46.0,0,0.533,796.8,74.3,17
156576,1253162620,76.0,106.0,-58.0,0,0.532,796.8,74.3,17
156577,1253170625,72.0,98.0,-69.0,0,0.538,796.8,74.3,17
156578,1253178625,68.0,91.0,-79.0,0,0.543,796.8,74.3,17
156579,1253186625,67.0,85.0,-88.0,0,0.546,796.8,74.3,17
156580,1253194625,61.0,79.0,-95.0,0,0.535,796.8,74.3,17
156581,1253202625,60.0,74.0,-102.0,0,0.545,796.8,74.3,17
156582,1253210625,61.0,71.0,-107.0,0,0.531,796.8,74.3,17
156583,1253218625,55.0,67.0,-111.0,0,0.527,796.8,74.3,17
156584,1253226621,52.0,64.0,-116.0,0,0.544,796.8,74.3,17
156585,1253234625,50.0,60.0,-119.0,0,0.528,796.8,74.3,17
156586,1253242625,48.0,57.0,-123.0,0,0.544,796.8,74.3,17
156587,1253250625,46.0,55.0,-125.0,0,0.526,796.8,74.3,17
156588,1253258625,44.0,52.0,-128.0,0,0.54,796.8,74.3,17
156589,1253266625,42.0,50.0,-130.0,0,0.532,796.8,74.3,17
156590,1253274625,36.0,46.0,-132.0,0,0.535,796.8,74.3,17
156591,1253282623,35.0,44.0,-134.0,0,0.537,796.8,74.3,17
156592,1253290625,30.0,40.0,-137.0,0,0.551,796.8,74.3,17
156593,1253298623,29.0,38.0,-139.0,0,0.543,796.8,74.3,17
156594,1253306625,29.0,35.0,-141.0,0,0.545,796.8,74.3,17
156595,1253314625,28.0,34.0,-142.0,0,0.536,796.8,74.3,17
156596,1253322625,28.0,32.0,-143.0,0,0.537,796.8,74.3,17
156597,1253330625,21.0,30.0,-145.0,0,0.549,796.8,74.3,17
156598,1253338625,20.0,27.0,-146.0,0,0.54,796.8,74.3,17
156599,1253346621,20.0,25.0,-147.0,0,0.541,796.8,74.3,17
156600,1253354621,21.0,24.0,-148.0,0,0.541,796.8,74.3,17
156601,1253362625,24.0,24.0,-148.0,1,0.531,796.8,74.3,17
156602,1253370625,23.0,24.0,-148.0,0,0.53,796.8,74.3,17
156603,1253378625,25.0,24.0,-148.0,0,0.53,796.8,74.3,17
156604,1253386625,26.0,25.0,-147.0,0,0.537,796.8,74.3,17
156605,1253394625,25.0,25.0,-147.0,1,0.527,796.8,74.3,17
156606,1253402625,30.0,26.0,-146.0,0,0.535,796.8,74.3,17
156607,1253410625,32.0,27.0,-144.0,0,0.541,796.8,74.3,17
156608,1253418625,32.0,29.0,-142.0,0,0.538,796.8,74.3,17
156609,1253426625,38.0,31.0,-140.0,0,0.535,796.8,74.3,17
156610,1253434620,40.0,33.0,-138.0,0,0.531,796.8,74.3,17
156611,1253442625,44.0,36.0,-135.0,0,0.537,796.8,74.3,17
156612,1253450625,48.0,39.0,-132.0,0,0.532,796.8,74.3,17
156613,1253458624,56.0,43.0,-129.0,0,0.527,796.8,74.3,17
156614,1253466624,57.0,46.0,-125.0,0,0.532,796.8,74.3,17
156615,1253474625,57.0,49.0,-121.0,0,0.525,796.8,74.3,17
156616,1253482621,61.0,52.0,-118.0,0,0.51,796.8,74.3,17
156617,1253490625,68.0,56.0,-114.0,0,0.515,796.8,74.3,17
156618,1253498625,69.0,59.0,-110.0,0,0.508,796.8,74.3,17
156619,1253506625,72.0,62.0,-106.0,0,0.502,796.8,74.3,17
156620,1253514625,73.0,65.0,-102.0,0,0.496,796.8,74.3,17
156621,1253522625,80.0,68.0,-98.0,0,0.49,796.8,74.3,17
156622,1253530625,82.0,72.0,-94.0,0,0.484,796.8,74.3,17
156623,1253538625,87.0,75.0,-90.0,0,0.478,796.8,74.3,17
156624,1253546625,90.0,79.0,-86.0,0,0.472,796.8,74.3,17
156625,1253554625,92.0,82.0,-83.0,0,0.456,796.8,74.3,17
156626,1253562624,94.0,85.0,-79.0,0,0.461,796.8,74.3,17
156627,1253570620,101.0,89.0,-75.0,0,0.455,796.8,74.3,17
156628,1253578621,101.0,92.0,-71.0,0,0.449,796.8,74.3,17
156629,1253586625,104.0,95.0,-68.0,0,0.433,796.8,74.3,17
156630,1253594625,107.0,98.0,-64.0,0,0.438,796.8,74.3,17
156631,1253602625,107.0,100.0,-61.0,0,0.422,796.8,74.3,17
156632,1253610625,106.0,101.0,-58.0,0,0.417,796.8,74.3,17
156633,1253618625,108.0,103.0,-55.0,0,0.412,796.8,74.3,17
156634,1253626624,108.0,104.0,-53.0,0,0.397,796.8,74.3,17
156635,1253634620,110.0,106.0,-51.0,0,0.393,796.8,74.3,17
156636,1253642625,111.0,107.0,-49.0,0,0.389,796.8,74.3,17
156637,1253650623,112.0,108.0,-47.0,0,0.386,796.8,74.3,17
156638,1253658625,110.0,109.0,-46.0,0,0.372,796.8,74.3,17
156639,1253666621,109.0,109.0,-44.0,0,0.379,796.8,74.3,17
156640,1253674625,113.0,110.0,-43.0,0,0.366,796.8,74.3,17
156641,1253682625,116.0,111.0,-42.0,0,0.363,796.8,74.3,17
156642,1253690625,125.0,115.0,-40.0,0,0.37,796.8,74.3,17
156643,1253698625,134.0,119.0,-37.0,0,0.376,796.8,74.3,17
156644,1253706625,148.0,126.0,-33.0,0,0.381,796.8,74.3,17
156645,1253714621,163.0,135.0,-27.0,0,0.394,796.8,74.3,17
156646,1253722625,186.0,147.0,-20.0,0,0.396,796.8,74.3,17
156647,1253730625,211.0,163.0,-10.0,0,0.434,796.8,74.3,17
156648,1253738625,239.0,181.0,2.0,0,0.474,796.8,74.3,17
156649,1253746621,273.0,204.0,17.0,0,0.526,796.8,74.3,17
156650,1253754625,307.0,229.0,34.0,0,0.57,796.8,74.3,17
156651,1253762625,338.0,255.0,54.0,0,0.624,796.8,74.3,17
156652,1253770621,368.0,283.0,76.0,0,0.671,796.8,74.3,17
156653,1253778621,400.0,311.0,100.0,0,0.718,796.8,74.3,17
156654,1253786624,430.0,340.0,124.0,0,0.753,796.8,74.3,17
156655,1253794625,454.0,368.0,149.0,0,0.79,796.8,74.3,17
156656,1253802623,476.0,394.0,174.0,0,0.819,796.8,74.3,17
156657,1253810623,491.0,417.0,198.0,0,0.838,796.8,74.3,17
156658,1253818623,505.0,439.0,221.0,0,0.853,796.8,74.3,17
156659,1253826625,516.0,457.0,242.0,0,0.856,796.8,74.3,17
156660,1253834623,521.0,473.0,261.0,0,0.854,796.8,74.3,17
156661,1253842625,515.0,483.0,277.0,0,0.839,796.8,74.3,17
156662,1253850622,514.0,491.0,290.0,0,0.816,796.8,74.3,17
156663,1253858622,504.0,494.0,299.0,0,0.777,796.8,74.3,17
156664,1253866624,497.0,495.0,306.0,0,0.756,796.8,74.3,17
156665,1253874625,484.0,492.0,309.0,0,0.71,796.8,74.3,17
156666,1253882621,473.0,487.0,309.0,1,0.677,796.8,74.3,17
156667,1253890625,453.0,479.0,306.0,0,0.705,796.8,74.3,17
156668,1253898625,440.0,470.0,301.0,0,0.723,796.8,74.3,17
156669,1253906625,422.0,458.0,294.0,0,0.74,796.8,74.3,17
156670,1253914625,404.0,445.0,284.0,0,0.766,796.8,74.3,17
156671,1253922621,382.0,430.0,272.0,0,0.778,796.8,74.3,17
156672,1253930621,363.0,414.0,259.0,0,0.776,796.8,74.3,17
156673,1253938625,340.0,396.0,244.0,0,0.781,796.8,74.3,17
156674,1253946623,320.0,377.0,228.0,0,0.773,796.8,74.3,17
156675,1253954624,299.0,358.0,210.0,0,0.769,796.8,74.3,17
156676,1253962623,273.0,338.0,192.0,0,0.747,796.8,74.3,17
156677,1253970623,250.0,316.0,172.0,0,0.735,796.8,74.3,17
156678,1253978625,232.0,296.0,152.0,0,0.708,796.8,74.3,17
156679,1253986625,210.0,275.0,132.0,0,0.679,796.8,74.3,17
156680,1253994621,190.0,254.0,111.0,0,0.655,796.8,74.3,17
156681,1254002623,175.0,235.0,91.0,0,0.618,796.8,74.3,17
156682,1254010622,156.0,216.0,71.0,0,0.589,796.8,74.3,17
156683,1254018624,146.0,199.0,51.0,0,0.56,796.8,74.3,17
156684,1254026621,132.0,183.0,33.0,0,0.521,796.8,74.3,17
156685,1254034624,121.0,168.0,16.0,0,0.49,796.8,74.3,17
156686,1254042621,115.0,155.0,0.0,0,0.484,796.8,74.3,17
156687,1254050624,104.0,143.0,-15.0,0,0.494,796.8,74.3,17
156688,1254058625,100.0,132.0,-28.0,0,0.493,796.8,74.3,17
156689,1254066620,97.0,124.0,-40.0,0,0.5,796.8,74.3,17
156690,1254074625,93.0,116.0,-51.0,0,0.505,796.8,74.3,17
156691,1254082625,91.0,110.0,-60.0,0,0.498,796.8,74.3,17
156692,1254090625,84.0,104.0,-68.0,0,0.499,796.8,74.3,17
156693,1254098625,83.0,99.0,-75.0,0,0.499,796.8,74.3,17
156694,1254106625,83.0,95.0,-81.0,0,0.497,796.8,74.3,17
156695,1254114625,78.0,91.0,-86.0,0,0.494,796.8,74.3,17
156696,1254122625,74.0,87.0,-91.0,0,0.501,796.8,74.3,17
156697,1254130625,71.0,83.0,-95.0,0,0.497,796.8,74.3,17
156698,1254138625,70.0,80.0,-99.0,0,0.503,796.8,74.3,17
156699,1254146623,65.0,76.0,-102.0,0,0.497,796.8,74.3,17
156700,1254154625,64.0,73.0,-106.0,0,0.513,796.8,74.3,17
156701,1254162625,56.0,69.0,-109.0,0,0.507,796.8,74.3,17
156702,1254170620,55.0,66.0,-112.0,0,0.511,796.8,74.3,17
156703,1254178625,52.0,62.0,-115.0,0,0.515,796.8,74.3,17
156704,1254186621,52.0,60.0,-117.0,0,0.508,796.8,74.3,17
156705,1254194625,48.0,57.0,-120.0,0,0.522,796.8,74.3,17
156706,1254202621,44.0,54.0,-122.0,0,0.515,796.8,74.3,17
156707,1254210625,46.0,52.0,-124.0,0,0.517,796.8,74.3,17
156708,1254218622,43.0,50.0,-126.0,0,0.52,796.8,74.3,17
156709,1254226625,42.0,48.0,-127.0,0,0.511,796.8,74.3,17
156710,1254234625,40.0,46.0,-129.0,0,0.523,796.8,74.3,17
156711,1254242625,42.0,45.0,-130.0,0,0.514,796.8,74.3,17
156712,1254250622,37.0,43.0,-131.0,0,0.515,796.8,74.3,17
156713,1254258621,35.0,41.0,-132.0,0,0.516,796.8,74.3,17
156714,1254266625,33.0,39.0,-133.0,0,0.517,796.8,74.3,17
156715,1254274624,36.0,38.0,-134.0,0,0.518,796.8,74.3,17
156716,1254282621,33.0,37.0,-134.0,1,0.508,796.8,74.3,17
156717,1254290625,35.0,37.0,-134.0,0,0.508,796.8,74.3,17
156718,1254298625,31.0,35.0,-135.0,0,0.518,796.8,74.3,17
156719,1254306625,37.0,36.0,-135.0,1,0.508,796.8,74.3,17
156720,1254314625,36.0,36.0,-134.0,0,0.516,796.8,74.3,17
156721,1254322625,38.0,36.0,-134.0,1,0.506,796.8,74.3,17
156722,1254330625,36.0,36.0,-133.0,0,0.513,796.8,74.3,17
156723,1254338625,45.0,38.0,-132.0,0,0.511,796.8,74.3,17
156724,1254346625,44.0,40.0,-130.0,0,0.518,796.8,74.3,17
156725,1254354625,48.0,42.0,-128.0,0,0.515,796.8,74.3,17
156726,1254362625,48.0,43.0,-126.0,0,0.512,796.8,74.3,17
156727,1254370625,52.0,45.0,-124.0,0,0.508,796.8,74.3,17
156728,1254378621,54.0,47.0,-121.0,0,0.514,796.8,74.3,17
156729,1254386625,59.0,50.0,-118.0,0,0.509,796.8,74.3,17
156730,1254394621,60.0,53.0,-116.0,0,0.496,796.8,74.3,17
156731,1254402625,64.0,55.0,-113.0,0,0.501,796.8,74.3,17
156732,1254410625,69.0,59.0,-109.0,0,0.506,796.8,74.3,17
156733,1254418625,69.0,61.0,-106.0,0,0.491,796.8,74.3,17
156734,1254426621,70.0,63.0,-103.0,0,0.486,796.8,74.3,17
156735,1254434625,75.0,66.0,-100.0,0,0.481,796.8,74.3,17
156736,1254442621,77.0,69.0,-97.0,0,0.477,796.8,74.3,17
156737,1254450625,79.0,71.0,-93.0,0,0.481,796.8,74.3,17
156738,1254458625,83.0,74.0,-90.0,0,0.466,796.8,74.3,17
156739,1254466625,87.0,77.0,-87.0,0,0.461,796.8,74.3,17
156740,1254474625,88.0,80.0,-83.0,0,0.465,796.8,74.3,17
156741,1254482624,90.0,82.0,-80.0,0,0.45,796.8,74.3,17
156742,1254490625,89.0,84.0,-77.0,0,0.445,796.8,74.3,17
156743,1254498624,92.0,86.0,-75.0,0,0.431,796.8,74.3,17
156744,1254506623,93.0,88.0,-72.0,0,0.437,796.8,74.3,17
156745,1254514625,95.0,89.0,-70.0,0,0.423,796.8,74.3,17
156746,1254522625,100.0,92.0,-67.0,0,0.428,796.8,74.3,17
156747,1254530625,102.0,94.0,-64.0,0,0.423,796.8,74.3,17
156748,1254538625,100.0,96.0,-62.0,0,0.409,796.8,74.3,17
156749,1254546625,105.0,98.0,-59.0,0,0.415,796.8,74.3,17
156750,1254554625,104.0,99.0,-57.0,0,0.4,796.8,74.3,17
156751,1254562624,108.0,102.0,-55.0,0,0.396,796.8,74.3,17
156752,1254570623,112.0,104.0,-52.0,0,0.401,796.8,74.3,17
156753,1254578625,118.0,107.0,-50.0,0,0.387,796.8,74.3,17
156754,1254586624,125.0,112.0,-46.0,0,0.402,796.8,74.3,17
156755,1254594625,139.0,118.0,-42.0,0,0.395,796.8,74.3,17
156756,1254602621,156.0,127.0,-36.0,0,0.409,796.8,74.3,17
156757,1254610625,172.0,138.0,-29.0,0,0.41,796.8,74.3,17
156758,1254618624,200.0,153.0,-20.0,0,0.42,796.8,74.3,17
156759,1254626625,224.0,170.0,-8.0,0,0.455,796.8,74.3,17
156760,1254634620,252.0,190.0,6.0,0,0.496,796.8,74.3,17
156761,1254642622,289.0,214.0,22.0,0,0.538,796.8,74.3,17
156762,1254650622,319.0,240.0,41.0,0,0.591,796.8,74.3,17
156763,1254658625,352.0,267.0,62.0,0,0.637,796.8,74.3,17
156764,1254666621,381.0,294.0,85.0,0,0.685,796.8,74.3,17
156765,1254674625,406.0,322.0,109.0,0,0.726,796.8,74.3,17
156766,1254682622,431.0,348.0,133.0,0,0.76,796.8,74.3,17
156767,1254690625,450.0,373.0,157.0,0,0.791,796.8,74.3,17
156768,1254698621,462.0,394.0,180.0,0,0.812,796.8,74.3,17
156769,1254706625,475.0,414.0,201.0,0,0.821,796.8,74.3,17
156770,1254714623,479.0,430.0,220.0,0,0.824,796.8,74.3,17
156771,1254722625,488.0,444.0,237.0,0,0.821,796.8,74.3,17
156772,1254730623,482.0,453.0,252.0,0,0.814,796.8,74.3,17
156773,1254738620,478.0,459.0,263.0,0,0.78,796.8,74.3,17
156774,1254746625,471.0,462.0,272.0,0,0.762,796.8,74.3,17
156775,1254754620,459.0,461.0,277.0,0,0.718,796.8,74.3,17
156776,1254762625,442.0,457.0,279.0,0,0.684,796.8,74.3,17
156777,1254770625,428.0,450.0,278.0,1,0.671,796.8,74.3,17
156778,1254778621,414.0,441.0,274.0,0,0.699,796.8,74.3,17
156779,1254786625,394.0,430.0,268.0,0,0.717,796.8,74.3,17
156780,1254794625,372.0,416.0,258.0,0,0.753,796.8,74.3,17
156781,1254802623,352.0,400.0,247.0,0,0.754,796.8,74.3,17
156782,1254810625,331.0,383.0,234.0,0,0.761,796.8,74.3,17
156783,1254818625,311.0,366.0,219.0,0,0.765,796.8,74.3,17
156784,1254826625,284.0,346.0,203.0,0,0.755,796.8,74.3,17
156785,1254834625,265.0,326.0,185.0,0,0.749,796.8,74.3,17
156786,1254842625,241.0,306.0,166.0,0,0.731,796.8,74.3,17
156787,1254850621,221.0,285.0,147.0,0,0.705,796.8,74.3,17
156788,1254858621,199.0,264.0,127.0,0,0.683,796.8,74.3,17
156789,1254866624,182.0,244.0,106.0,0,0.658,796.8,74.3,17
156790,1254874624,163.0,225.0,86.0,0,0.621,796.8,74.3,17
156791,1254882625,150.0,207.0,67.0,0,0.586,796.8,74.3,17
156792,1254890621,137.0,190.0,48.0,0,0.558,796.8,74.3,17
156793,1254898623,124.0,174.0,30.0,0,0.525,796.8,74.3,17
156794,1254906625,117.0,160.0,13.0,0,0.495,796.8,74.3,17
156795,1254914625,108.0,147.0,-2.0,0,0.474,796.8,74.3,17
156796,1254922620,100.0,136.0,-16.0,0,0.482,796.8,74.3,17
156797,1254930624,99.0,127.0,-29.0,0,0.49,796.8,74.3,17
156798,1254938625,99.0,120.0,-40.0,0,0.485,796.8,74.3,17
156799,1254946623,96.0,114.0,-49.0,0,0.477,796.8,74.3,17
156800,1254954625,93.0,109.0,-57.0,0,0.478,796.8,74.3,17
156801,1254962620,92.0,105.0,-64.0,0,0.478,796.8,74.3,17
156802,1254970625,92.0,102.0,-69.0,0,0.464,796.8,74.3,17
156803,1254978625,88.0,98.0,-74.0,0,0.472,796.8,74.3,17
156804,1254986625,92.0,97.0,-77.0,0,0.456,796.8,74.3,17
156805,1254994625,88.0,95.0,-81.0,0,0.472,796.8,74.3,17
156806,1255002623,84.0,92.0,-83.0,0,0.455,796.8,74.3,17
156807,1255010625,89.0,91.0,-85.0,0,0.458,796.8,74.3,17
156808,1255018625,86.0,90.0,-87.0,0,0.461,796.8,74.3,17
156809,1255026625,85.0,89.0,-88.0,0,0.453,796.8,74.3,17
156810,1255034625,86.0,88.0,-89.0,0,0.455,796.8,74.3,17
156811,1255042620,80.0,86.0,-90.0,0,0.456,796.8,74.3,17
156812,1255050625,82.0,85.0,-91.0,0,0.458,796.8,74.3,17
156813,1255058625,79.0,84.0,-92.0,0,0.46,796.8,74.3,17
156814,1255066625,77.0,82.0,-93.0,0,0.461,796.8,74.3,17
156815,1255074625,69.0,79.0,-94.0,0,0.463,796.8,74.3,17
156816,1255082623,72.0,77.0,-96.0,0,0.476,796.8,74.3,17
156817,1255090620,68.0,75.0,-97.0,0,0.467,796.8,74.3,17
156818,1255098625,67.0,73.0,-98.0,0,0.469,796.8,74.3,17
156819,1255106621,62.0,70.0,-100.0,0,0.482,796.8,74.3,17
156820,1255114625,64.0,69.0,-101.0,0,0.473,796.8,74.3,17
156821,1255122622,60.0,67.0,-103.0,0,0.486,796.8,74.3,17
156822,1255130621,56.0,64.0,-104.0,0,0.478,796.8,74.3,17
156823,1255138625,60.0,63.0,-105.0,0,0.479,796.8,74.3,17
156824,1255146621,60.0,62.0,-106.0,0,0.48,796.8,74.3,17
156825,1255154625,53.0,60.0,-107.0,0,0.482,796.8,74.3,17
156826,1255162625,52.0,58.0,-108.0,0,0.483,796.8,74.3,17
156827,1255170625,52.0,57.0,-109.0,0,0.484,796.8,74.3,17
156828,1255178625,48.0,55.0,-110.0,0,0.485,796.8,74.3,17
156829,1255186625,56.0,55.0,-111.0,0,0.487,796.8,74.3,17
156830,1255194623,53.0,54.0,-111.0,1,0.477,796.8,74.3,17
156831,1255202625,55.0,55.0,-111.0,0,0.477,796.8,74.3,17
156832,1255210625,60.0,56.0,-110.0,0,0.484,796.8,74.3,17
156833,1255218625,56.0,56.0,-110.0,1,0.475,796.8,74.3,17
156834,1255226621,61.0,57.0,-109.0,0,0.482,796.8,74.3,17
156835,1255234625,60.0,58.0,-107.0,0,0.489,796.8,74.3,17
156836,1255242625,66.0,60.0,-106.0,0,0.478,796.8,74.3,17
156837,1255250624,68.0,62.0,-104.0,0,0.484,796.8,74.3,17
156838,1255258625,69.0,64.0,-102.0,0,0.481,796.8,74.3,17
156839,1255266625,72.0,66.0,-100.0,0,0.478,796.8,74.3,17
156840,1255274625,76.0,68.0,-97.0,0,0.483,796.8,74.3,17
156841,1255282624,80.0,71.0,-95.0,0,0.47,796.8,74.3,17
156842,1255290625,81.0,73.0,-92.0,0,0.476,796.8,74.3,17
156843,1255298623,86.0,76.0,-89.0,0,0.471,796.8,74.3,17
156844,1255306625,87.0,79.0,-86.0,0,0.466,796.8,74.3,17
156845,1255314622,88.0,81.0,-83.0,0,0.462,796.8,74.3,17
156846,1255322625,91.0,84.0,-80.0,0,0.457,796.8,74.3,17
156847,1255330623,94.0,86.0,-77.0,0,0.452,796.8,74.3,17
156848,1255338624,97.0,89.0,-74.0,0,0.448,796.8,74.3,17
156849,1255346625,98.0,91.0,-71.0,0,0.443,796.8,74.3,17
156850,1255354625,102.0,94.0,-68.0,0,0.439,796.8,74.3,17
156851,1255362622,105.0,96.0,-65.0,0,0.434,796.8,74.3,17
156852,1255370621,111.0,100.0,-62.0,0,0.43,796.8,74.3,17
156853,1255378625,116.0,104.0,-58.0,0,0.434,796.8,74.3,17
156854,1255386625,124.0,109.0,-54.0,0,0.428,796.8,74.3,17
156855,1255394625,140.0,116.0,-49.0,0,0.432,796.8,74.3,17
156856,1255402624,156.0,126.0,-43.0,0,0.434,796.8,74.3,17
156857,1255410625,176.0,138.0,-35.0,0,0.444,796.8,74.3,17
156858,1255418623,204.0,154.0,-24.0,0,0.461,796.8,74.3,17
156859,1255426625,231.0,173.0,-12.0,0,0.456,796.8,74.3,17
156860,1255434622,260.0,194.0,3.0,0,0.47,796.8,74.3,17
156861,1255442621,296.0,219.0,21.0,0,0.519,796.8,74.3,17
156862,1255450620,326.0,245.0,41.0,0,0.561,796.8,74.3,17
156863,1255458625,352.0,271.0,62.0,0,0.598,796.8,74.3,17
156864,1255466620,383.0,298.0,85.0,0,0.644,796.8,74.3,17
156865,1255474623,412.0,326.0,109.0,0,0.686,796.8,74.3,17
156866,1255482623,434.0,352.0,133.0,0,0.721,796.8,74.3,17
156867,1255490625,449.0,375.0,157.0,0,0.754,796.8,74.3,17
156868,1255498625,463.0,397.0,179.0,0,0.773,796.8,74.3,17
156869,1255506625,475.0,416.0,200.0,0,0.792,796.8,74.3,17
156870,1255514625,481.0,431.0,219.0,0,0.799,796.8,74.3,17
156871,1255522625,480.0,443.0,236.0,0,0.8,796.8,74.3,17
156872,1255530623,479.0,452.0,250.0,0,0.786,796.8,74.3,17
156873,1255538625,469.0,456.0,260.0,0,0.754,796.8,74.3,17
156874,1255546621,457.0,456.0,267.0,0,0.728,796.8,74.3,17
156875,1255554625,449.0,455.0,271.0,0,0.698,796.8,74.3,17
156876,1255562625,430.0,449.0,271.0,1,0.658,796.8,74.3,17
156877,1255570625,419.0,441.0,269.0,0,0.677,796.8,74.3,17
156878,1255578625,397.0,431.0,264.0,0,0.706,796.8,74.3,17
156879,1255586625,378.0,418.0,256.0,0,0.733,796.8,74.3,17
156880,1255594622,357.0,403.0,246.0,0,0.748,796.8,74.3,17
156881,1255602625,335.0,387.0,234.0,0,0.759,796.8,74.3,17
156882,1255610624,314.0,369.0,220.0,0,0.766,796.8,74.3,17
156883,1255618620,292.0,350.0,204.0,0,0.768,796.8,74.3,17
156884,1255626623,269.0,331.0,187.0,0,0.758,796.8,74.3,17
156885,1255634624,247.0,310.0,168.0,0,0.751,796.8,74.3,17
156886,1255642623,227.0,290.0,149.0,0,0.726,796.8,74.3,17
156887,1255650625,200.0,268.0,129.0,0,0.705,796.8,74.3,17
156888,1255658625,185.0,248.0,109.0,0,0.676,796.8,74.3,17
156889,1255666622,171.0,229.0,89.0,0,0.645,796.8,74.3,17
156890,1255674625,150.0,210.0,70.0,0,0.609,796.8,74.3,17
156891,1255682621,141.0,193.0,51.0,0,0.58,796.8,74.3,17
156892,1255690622,125.0,177.0,33.0,0,0.546,796.8,74.3,17
156893,1255698620,113.0,161.0,15.0,0,0.521,796.8,74.3,17
156894,1255706625,111.0,149.0,-1.0,0,0.483,796.8,74.3,17
156895,1255714623,100.0,137.0,-15.0,0,0.476,796.8,74.3,17
156896,1255722623,96.0,127.0,-28.0,0,0.484,796.8,74.3,17
156897,1255730623,93.0,119.0,-40.0,0,0.491,796.8,74.3,17
156898,1255738621,91.0,112.0,-50.0,0,0.485,796.8,74.3,17
156899,1255746623,91.0,107.0,-59.0,0,0.488,796.8,74.3,17
156900,1255754625,92.0,103.0,-66.0,0,0.476,796.8,74.3,17
156901,1255762625,90.0,100.0,-71.0,0,0.462,796.8,74.3,17
156902,1255770625,90.0,98.0,-76.0,0,0.47,796.8,74.3,17
156903,1255778625,88.0,95.0,-80.0,0,0.465,796.8,74.3,17
156904,1255786625,84.0,93.0,-83.0,0,0.459,796.8,74.3,17
156905,1255794624,85.0,91.0,-86.0,0,0.464,796.8,74.3,17
156906,1255802625,83.0,89.0,-88.0,0,0.456,796.8,74.3,17
156907,1255810625,82.0,87.0,-90.0,0,0.46,796.8,74.3,17
156908,1255818625,80.0,85.0,-92.0,0,0.463,796.8,74.3,17
156909,1255826624,79.0,84.0,-93.0,0,0.455,796.8,74.3,17
156910,1255834625,71.0,81.0,-95.0,0,0.468,796.8,74.3,17
156911,1255842625,71.0,78.0,-97.0,0,0.472,796.8,74.3,17
156912,1255850625,65.0,75.0,-99.0,0,0.475,796.8,74.3,17
156913,1255858625,64.0,72.0,-101.0,0,0.478,796.8,74.3,17
156914,1255866625,64.0,70.0,-103.0,0,0.482,796.8,74.3,17
156915,1255874625,55.0,67.0,-105.0,0,0.485,796.8,74.3,17
156916,1255882625,59.0,65.0,-106.0,0,0.477,796.8,74.3,17
156917,1255890621,54.0,62.0,-108.0,0,0.49,796.8,74.3,17
156918,1255898625,56.0,61.0,-110.0,0,0.494,796.8,74.3,17
156919,1255906625,52.0,59.0,-111.0,0,0.485,796.8,74.3,17
156920,1255914621,49.0,56.0,-113.0,0,0.499,796.8,74.3,17
156921,1255922625,50.0,55.0,-114.0,0,0.49,796.8,74.3,17
156922,1255930625,49.0,53.0,-115.0,0,0.492,796.8,74.3,17
156923,1255938625,52.0,53.0,-116.0,0,0.494,796.8,74.3,17
156924,1255946625,51.0,53.0,-116.0,1,0.484,796.8,74.3,17
156925,1255954625,52.0,52.0,-116.0,0,0.484,796.8,74.3,17
156926,1255962624,48.0,51.0,-116.0,0,0.485,796.8,74.3,17
156927,1255970625,53.0,52.0,-116.0,0,0.485,796.8,74.3,17
156928,1255978625,55.0,53.0,-116.0,0,0.485,796.8,74.3,17
156929,1255986625,54.0,53.0,-115.0,0,0.494,796.8,74.3,17
156930,1255994623,54.0,53.0,-114.0,0,0.492,796.8,74.3,17
156931,1256002625,59.0,55.0,-113.0,0,0.491,796.8,74.3,17
156932,1256010625,63.0,57.0,-111.0,0,0.499,796.8,74.3,17
156933,1256018625,62.0,58.0,-109.0,0,0.496,796.8,74.3,17
156934,1256026625,65.0,60.0,-108.0,0,0.484,796.8,74.3,17
156935,1256034625,68.0,62.0,-105.0,0,0.501,796.8,74.3,17
156936,1256042625,69.0,63.0,-103.0,0,0.487,796.8,74.3,17
156937,1256050625,73.0,66.0,-101.0,0,0.484,796.8,74.3,17
156938,1256058623,73.0,68.0,-98.0,0,0.49,796.8,74.3,17
156939,1256066625,77.0,70.0,-96.0,0,0.476,796.8,74.3,17
156940,1256074621,76.0,71.0,-93.0,0,0.483,796.8,74.3,17
156941,1256082621,86.0,75.0,-90.0,0,0.478,796.8,74.3,17
156942,1256090625,84.0,77.0,-88.0,0,0.464,796.8,74.3,17
156943,1256098621,85.0,79.0,-85.0,0,0.47,796.8,74.3,17
156944,1256106624,89.0,81.0,-82.0,0,0.466,796.8,74.3,17
156945,1256114625,93.0,84.0,-79.0,0,0.461,796.8,74.3,17
156946,1256122625,92.0,86.0,-76.0,0,0.456,796.8,74.3,17
156947,1256130621,96.0,89.0,-74.0,0,0.442,796.8,74.3,17
156948,1256138625,100.0,91.0,-71.0,0,0.448,796.8,74.3,17
156949,1256146625,101.0,94.0,-68.0,0,0.444,796.8,74.3,17
156950,1256154625,108.0,97.0,-65.0,0,0.439,796.8,74.3,17
156951,1256162625,107.0,100.0,-62.0,0,0.434,796.8,74.3,17
156952,1256170623,109.0,102.0,-59.0,0,0.43,796.8,74.3,17
156953,1256178625,113.0,105.0,-56.0,0,0.425,796.8,74.3,17
156954,1256186625,115.0,107.0,-53.0,0,0.42,796.8,74.3,17
156955,1256194625,116.0,109.0,-50.0,0,0.416,796.8,74.3,17
156956,1256202625,115.0,111.0,-48.0,0,0.402,796.8,74.3,17
156957,1256210625,116.0,112.0,-45.0,0,0.408,796.8,74.3,17
156958,1256218621,118.0,113.0,-43.0,0,0.394,796.8,74.3,17
156959,1256226624,125.0,116.0,-41.0,0,0.391,796.8,74.3,17
156960,1256234624,131.0,120.0,-38.0,0,0.398,796.8,74.3,17
156961,1256242625,140.0,125.0,-35.0,0,0.393,796.8,74.3,17
156962,1256250625,151.0,131.0,-30.0,0,0.408,796.8,74.3,17
156963,1256258625,172.0,141.0,-24.0,0,0.41,796.8,74.3,17
156964,1256266624,195.0,154.0,-17.0,0,0.411,796.8,74.3,17
156965,1256274625,225.0,171.0,-6.0,0,0.44,796.8,74.3,17
156966,1256282625,259.0,193.0,8.0,0,0.471,796.8,74.3,17
156967,1256290621,290.0,216.0,24.0,0,0.511,796.8,74.3,17
156968,1256298621,325.0,243.0,43.0,0,0.562,796.8,74.3,17
156969,1256306625,360.0,271.0,64.0,0,0.607,796.8,74.3,17
156970,1256314621,396.0,301.0,88.0,0,0.66,796.8,74.3,17
156971,1256322622,431.0,333.0,114.0,0,0.709,796.8,74.3,17
156972,1256330621,458.0,363.0,140.0,0,0.746,796.8,74.3,17
156973,1256338622,484.0,392.0,167.0,0,0.787,796.8,74.3,17
156974,1256346625,507.0,420.0,194.0,0,0.819,796.8,74.3,17
156975,1256354623,521.0,445.0,219.0,0,0.836,796.8,74.3,17
156976,1256362625,536.0,467.0,243.0,0,0.852,796.8,74.3,17
156977,1256370625,547.0,486.0,265.0,0,0.858,796.8,74.3,17
156978,1256378625,544.0,500.0,284.0,0,0.851,796.8,74.3,17
156979,1256386625,544.0,511.0,300.0,0,0.837,796.8,74.3,17
156980,1256394625,537.0,517.0,313.0,0,0.816,796.8,74.3,17
156981,1256402625,532.0,521.0,322.0,0,0.778,796.8,74.3,17
156982,1256410625,516.0,520.0,328.0,0,0.748,796.8,74.3,17
156983,1256418625,505.0,516.0,331.0,0,0.716,796.8,74.3,17
156984,1256426625,485.0,509.0,330.0,1,0.695,796.8,74.3,17
156985,1256434625,472.0,500.0,326.0,0,0.724,796.8,74.3,17
156986,1256442625,453.0,488.0,319.0,0,0.754,796.8,74.3,17
156987,1256450625,432.0,475.0,310.0,0,0.772,796.8,74.3,17
156988,1256458623,414.0,460.0,299.0,0,0.787,796.8,74.3,17
156989,1256466622,391.0,443.0,285.0,0,0.808,796.8,74.3,17
156990,1256474622,369.0,425.0,270.0,0,0.807,796.8,74.3,17
156991,1256482621,343.0,405.0,253.0,0,0.811,796.8,74.3,17
156992,1256490625,321.0,385.0,235.0,0,0.804,796.8,74.3,17
156993,1256498621,299.0,364.0,216.0,0,0.793,796.8,74.3,17
156994,1256506625,272.0,342.0,195.0,0,0.783,796.8,74.3,17
156995,1256514625,251.0,320.0,174.0,0,0.758,796.8,74.3,17
156996,1256522622,226.0,297.0,153.0,0,0.731,796.8,74.3,17
156997,1256530625,211.0,276.0,131.0,0,0.706,796.8,74.3,17
156998,1256538621,188.0,255.0,109.0,0,0.674,796.8,74.3,17
156999,1256546625,172.0,235.0,88.0,0,0.636,796.8,74.3,17
157000,1256554625,151.0,214.0,67.0,0,0.604,796.8,74.3,17
157001,1256562625,139.0,196.0,47.0,0,0.567,796.8,74.3,17
157002,1256570625,122.0,178.0,27.0,0,0.538,796.8,74.3,17
157003,1256578622,112.0,162.0,9.0,0,0.5,796.8,74.3,17
157004,1256586620,107.0,149.0,-8.0,0,0.497,796.8,74.3,17
157005,1256594625,98.0,136.0,-24.0,0,0.511,796.8,74.3,17
157006,1256602625,92.0,126.0,-38.0,0,0.513,796.8,74.3,17
157007,1256610625,86.0,116.0,-50.0,0,0.512,796.8,74.3,17
157008,1256618625,80.0,107.0,-62.0,0,0.53,796.8,74.3,17
157009,1256626625,77.0,100.0,-72.0,0,0.524,796.8,74.3,17
157010,1256634620,72.0,93.0,-81.0,0,0.527,796.8,74.3,17
157011,1256642625,70.0,88.0,-88.0,0,0.516,796.8,74.3,17
157012,1256650625,67.0,83.0,-95.0,0,0.527,796.8,74.3,17
157013,1256658625,67.0,79.0,-101.0,0,0.525,796.8,74.3,17
157014,1256666623,60.0,74.0,-106.0,0,0.522,796.8,74.3,17
157015,1256674625,56.0,70.0,-111.0,0,0.529,796.8,74.3,17
157016,1256682625,57.0,67.0,-115.0,0,0.524,796.8,74.3,17
157017,1256690625,54.0,64.0,-118.0,0,0.518,796.8,74.3,17
157018,1256698625,52.0,61.0,-121.0,0,0.522,796.8,74.3,17
157019,1256706622,44.0,57.0,-124.0,0,0.526,796.8,74.3,17
157020,1256714625,44.0,54.0,-127.0,0,0.53,796.8,74.3,17
157021,1256722625,41.0,51.0,-130.0,0,0.534,796.8,74.3,17
157022,1256730625,39.0,48.0,-132.0,0,0.527,796.8,74.3,17
157023,1256738625,37.0,45.0,-134.0,0,0.529,796.8,74.3,17
157024,1256746625,30.0,41.0,-137.0,0,0.544,796.8,74.3,17
157025,1256754625,29.0,38.0,-139.0,0,0.536,796.8,74.3,17
157026,1256762625,27.0,36.0,-141.0,0,0.539,796.8,74.3,17
157027,1256770625,25.0,33.0,-143.0,0,0.541,796.8,74.3,17
157028,1256778621,22.0,30.0,-145.0,0,0.544,796.8,74.3,17
157029,1256786625,18.0,27.0,-147.0,0,0.547,796.8,74.3,17
157030,1256794621,23.0,26.0,-148.0,0,0.538,796.8,74.3,17
157031,1256802625,20.0,25.0,-149.0,0,0.539,796.8,74.3,17
157032,1256810625,22.0,24.0,-150.0,0,0.54,796.8,74.3,17
157033,1256818625,17.0,22.0,-151.0,0,0.541,796.8,74.3,17
157034,1256826621,23.0,23.0,-151.0,1,0.531,796.8,74.3,17
157035,1256834625,23.0,23.0,-151.0,0,0.531,796.8,74.3,17
157036,1256842624,22.0,22.0,-151.0,0,0.531,796.8,74.3,17
