seq,t_us,rr_ms,hr_bpm,score,flags
4012097,32097332724,848.0,69.4,0.874,73
4012205,32098196723,863.0,69.4,0.884,73
4012311,32099044723,848.0,69.4,0.882,73
4012411,32099844726,800.0,69.4,0.862,73
4012506,32100604723,759.0,69.4,0.833,73
4012604,32101388723,784.0,70.8,0.832,73
4012748,32102540723,1152.0,70.8,0.455,185
4012844,32103308725,768.0,70.8,0.463,185
4012982,32104412726,1104.0,70.8,0.801,169
4013076,32105164726,752.0,70.8,0.816,169
4013168,32105900723,735.0,70.8,0.845,169
4013259,32106628723,728.0,70.8,0.868,73
4013353,32107380727,752.0,70.8,0.865,73
4013447,32108132723,751.0,75.0,0.84,73
4013541,32108884723,752.0,76.5,0.819,73
4013632,32109612725,728.0,78.9,0.804,73
4013768,32110700723,1087.0,78.9,0.459,185
4013861,32111444723,744.0,78.9,0.465,185
4013946,32112124724,680.0,78.9,0.474,185
4014082,32113212723,1087.0,78.9,0.776,169
4014119,32113508724,296.0,78.9,0.509,173
4014257,32114612725,1104.0,78.9,0.799,169
4014345,32115316723,703.0,79.8,0.814,73
4014435,32116036726,720.0,79.8,0.872,73
4014526,32116764724,727.0,79.8,0.872,73
4014614,32117468723,703.0,82.4,0.857,73
4014701,32118164723,696.0,82.4,0.853,73
4014792,32118892723,728.0,82.4,0.854,73
4014888,32119660724,768.0,82.4,0.866,73
4014986,32120444725,784.0,82.4,0.849,73
4015078,32121180727,736.0,82.4,0.845,73
4015174,32121948723,767.0,82.4,0.851,73
4015265,32122676723,728.0,82.4,0.843,73
4015359,32123428723,752.0,81.5,0.865,73
4015455,32124196726,768.0,79.8,0.851,73
4015549,32124948723,751.0,79.8,0.854,73
4015638,32125660723,712.0,79.8,0.863,73
4015733,32126420723,760.0,79.8,0.872,73
4015828,32127180726,760.0,79.8,0.869,73
4015926,32127964723,783.0,78.9,0.865,73
4016025,32128756726,792.0,78.9,0.851,73
4016132,32129612723,855.0,78.9,0.832,73
4016246,32130524724,912.0,78.1,0.795,73
4016303,32130980727,456.0,78.1,0.473,185
4016399,32131748726,767.0,78.1,0.517,169
4016510,32132636723,887.0,78.1,0.508,169
4016633,32133620725,984.0,78.1,0.435,185
4016680,32133996724,375.0,78.1,0.835,169
4016783,32134820724,824.0,78.1,0.829,169
4016886,32135644726,824.0,76.5,0.844,73
4016992,32136492724,847.0,75.8,0.865,73
4017100,32137356723,863.0,70.8,0.857,73
4017208,32138220724,864.0,70.3,0.856,73
4017315,32139076724,856.0,70.1,0.862,73
4017416,32139884723,807.0,70.1,0.862,73
4017520,32140716725,832.0,70.1,0.874,73
4017626,32141564723,847.0,70.3,0.876,73
4017737,32142452724,888.0,70.3,0.882,73
4017850,32143356726,904.0,70.1,0.864,73
4017963,32144260723,903.0,69.4,0.853,73
4018070,32145116725,856.0,70.1,0.863,73
4018176,32145964725,848.0,70.1,0.885,73
4018280,32146796723,831.0,70.8,0.871,73
4018382,32147612726,816.0,70.8,0.861,73
4018479,32148388726,776.0,70.8,0.836,73
4018581,32149204726,816.0,70.8,0.868,73
4018683,32150020725,815.0,72.1,0.865,73
4018787,32150852723,831.0,72.1,0.851,73
4018888,32151660723,808.0,73.5,0.83,73
4018988,32152460727,800.0,73.5,0.856,73
4019092,32153292722,831.0,73.5,0.868,73
4019198,32154140723,848.0,73.5,0.863,73
4019301,32154964723,824.0,73.5,0.842,73
4019403,32155780723,816.0,73.5,0.861,73
4019502,32156572723,792.0,73.5,0.858,73
4019600,32157356726,784.0,73.5,0.855,73
4019695,32158116723,759.0,74.3,0.843,73
4019788,32158860724,744.0,75.0,0.841,73
4019880,32159596724,736.0,75.8,0.835,73
4019975,32160356726,760.0,76.5,0.824,73
4020119,32161508723,1151.0,76.5,0.444,185
4020211,32162244723,736.0,76.5,0.463,185
4020261,32162644724,400.0,76.5,0.54,185
4020359,32163428723,783.0,76.5,0.551,185
4020548,32164940723,1512.0,76.5,0.324,185
4020691,32166084726,1144.0,76.5,0.478,185
4020800,32166956727,872.0,76.5,0.415,185
4020897,32167732726,775.0,76.5,0.418,185
4020992,32168492723,759.0,76.5,0.436,185
4021039,32168868726,376.0,76.5,0.834,169
4021139,32169668723,799.0,77.3,0.831,73
4021235,32170436723,768.0,78.1,0.843,73
4021332,32171212723,776.0,78.1,0.856,73
4021427,32171972723,760.0,78.9,0.876,73
4021520,32172716727,744.0,78.9,0.851,73
4021611,32173444726,727.0,78.9,0.858,73
4021704,32174188727,744.0,78.9,0.863,73
4021797,32174932728,744.0,78.9,0.866,73
4021891,32175684723,751.0,79.8,0.869,73
4021988,32176460723,776.0,79.8,0.863,73
4022087,32177252724,792.0,79.8,0.874,73
4022190,32178076726,824.0,79.8,0.858,73
4022300,32178956723,879.0,79.8,0.821,73
4022407,32179812724,856.0,77.3,0.797,73
4022516,32180684726,872.0,77.3,0.802,169
4022569,32181108728,424.0,77.3,0.478,185
4022681,32182004723,895.0,77.3,0.476,185
4022794,32182908723,904.0,77.3,0.433,185
4022841,32183284723,376.0,77.3,0.826,169
4022944,32184108725,824.0,77.3,0.836,169
4023046,32184924725,816.0,75.8,0.824,73
4023144,32185708723,783.0,75.8,0.864,73
4023244,32186508723,800.0,75.0,0.875,73
4023348,32187340725,832.0,72.8,0.879,73
4023456,32188204726,864.0,72.1,0.869,73
4023561,32189044724,839.0,71.4,0.852,73
4023660,32189836723,791.0,71.4,0.847,73
4023757,32190612724,776.0,72.1,0.863,73
4023853,32191380723,767.0,75.0,0.857,73
4023946,32192124723,744.0,75.8,0.832,73
4024041,32192884724,760.0,75.8,0.846,73
4024137,32193652723,767.0,77.3,0.846,73
4024235,32194436725,784.0,77.3,0.831,73
4024330,32195196723,759.0,78.1,0.833,73
4024428,32195980724,784.0,78.1,0.852,73
4024528,32196780723,799.0,78.1,0.855,73
4024626,32197564725,784.0,78.1,0.846,73
4024727,32198372723,807.0,76.5,0.871,73
4024829,32199188723,816.0,76.5,0.862,73
4024927,32199972723,784.0,76.5,0.85,73
4025022,32200732723,760.0,76.5,0.854,73
4025117,32201492725,760.0,76.5,0.873,73
4025213,32202260725,768.0,76.5,0.87,73
4025310,32203036724,775.0,76.5,0.859,73
4025405,32203796723,759.0,77.3,0.856,73
4025501,32204564723,768.0,78.1,0.867,73
4025598,32205340726,776.0,78.1,0.863,73
4025694,32206108723,767.0,78.1,0.856,73
4025792,32206892723,784.0,78.1,0.853,73
4025890,32207676723,784.0,78.1,0.861,73
4025987,32208452725,776.0,77.3,0.863,73
4026082,32209212723,759.0,77.3,0.854,73
4026175,32209956723,744.0,78.1,0.864,73
4026269,32210708723,752.0,78.1,0.875,73
4026366,32211484725,776.0,77.3,0.87,73
4026467,32212292723,807.0,77.3,0.865,73
4026573,32213140723,848.0,77.3,0.849,73
4026673,32213940726,800.0,77.3,0.829,73
4026772,32214732725,791.0,77.3,0.846,73
4026873,32215540726,808.0,75.8,0.85,73
4026974,32216348723,807.0,75.0,0.854,73
4027071,32217124724,776.0,75.0,0.842,73
4027168,32217900723,775.0,75.0,0.863,73
4027268,32218700723,800.0,75.0,0.863,73
4027365,32219476723,776.0,75.0,0.864,73
4027462,32220252726,776.0,75.8,0.867,73
4027561,32221044723,791.0,75.8,0.868,73
4027662,32221852723,808.0,75.8,0.861,73
4027761,32222644724,792.0,75.8,0.857,73
4027862,32223452723,807.0,75.8,0.865,73
4027966,32224284724,832.0,75.8,0.862,73
4028066,32225084723,799.0,75.0,0.841,73
4028167,32225892723,808.0,75.0,0.862,73
4028268,32226700723,808.0,74.3,0.862,73
4028368,32227500725,800.0,74.3,0.846,73
4028463,32228260723,759.0,74.3,0.852,73
4028561,32229044727,784.0,75.0,0.879,73
4028661,32229844726,799.0,75.0,0.874,73
4028760,32230636723,791.0,75.0,0.846,73
4028860,32231436724,800.0,75.0,0.863,73
4028962,32232252723,815.0,75.0,0.865,73
4029062,32233052723,800.0,75.0,0.848,73
4029158,32233820723,768.0,75.0,0.856,73
4029251,32234564726,744.0,75.8,0.85,73
4029340,32235276723,711.0,75.8,0.846,73
4029475,32236356726,1080.0,75.8,0.44,185
4029593,32237300724,943.0,75.8,0.797,169
4029675,32237956723,655.0,75.8,0.822,169
4029758,32238620724,664.0,75.8,0.853,169
4029841,32239284724,664.0,75.8,0.874,169
4029925,32239956727,672.0,75.8,0.862,169
4030014,32240668723,711.0,75.8,0.843,73
4030110,32241436723,768.0,77.9,0.869,73
4030206,32242204723,768.0,78.1,0.851,73
4030308,32243020723,816.0,78.1,0.854,73
4030416,32243884723,864.0,78.1,0.835,73
4030522,32244732723,848.0,78.1,0.807,73
4030619,32245508722,775.0,77.9,0.816,73
4030715,32246276726,768.0,77.9,0.834,73
4030810,32247036723,759.0,77.9,0.843,73
4030904,32247788726,752.0,78.1,0.853,73
4030999,32248548723,759.0,78.1,0.843,73
4031093,32249300725,752.0,78.1,0.865,73
4031190,32250076723,775.0,78.1,0.865,73
4031290,32250876727,800.0,78.1,0.851,73
4031387,32251652724,775.0,78.1,0.836,73
4031581,32253204723,783.0,78.1,0.851,73
4031672,32253932726,728.0,78.1,0.82,73
4031762,32254652723,719.0,78.1,0.866,73
4031853,32255380725,728.0,78.1,0.861,73
4031939,32256068725,688.0,78.1,0.865,73
4032022,32256732723,663.0,82.4,0.823,73
4032109,32257428723,696.0,82.4,0.577,185
4032284,32258828726,1400.0,82.4,0.368,185
4032464,32260268723,1439.0,82.4,0.309,185
4032640,32261676723,1408.0,82.4,0.783,185
4032725,32262356726,680.0,82.4,0.771,169
4032810,32263036723,679.0,82.4,0.776,73
4032894,32263708723,672.0,83.3,0.857,73
4032980,32264396723,688.0,85.7,0.867,73
4033066,32265084725,688.0,87.2,0.865,73
4033153,32265780722,695.0,87.2,0.861,73
4033238,32266460724,680.0,87.2,0.854,73
4033325,32267156728,696.0,87.2,0.866,73
4033412,32267852728,696.0,87.2,0.873,73
4033502,32268572724,719.0,86.2,0.872,73
4033590,32269276723,703.0,86.2,0.858,73
4033678,32269980726,704.0,86.2,0.876,73
4033770,32270716723,735.0,86.2,0.878,73
4033860,32271436723,720.0,85.2,0.861,73
4033951,32272164723,728.0,85.2,0.862,73
4034048,32272940724,776.0,83.3,0.842,73
4034150,32273756727,816.0,83.3,0.833,73
4034249,32274548723,791.0,82.4,0.755,73
4034347,32275332726,784.0,82.4,0.777,169
4034444,32276108723,775.0,82.4,0.769,169
4034538,32276860723,752.0,82.4,0.772,169
4034583,32277220726,360.0,82.4,0.468,185
4034682,32278012723,791.0,82.4,0.474,185
4034828,32279180726,1168.0,82.4,0.775,185
4034859,32279428727,248.0,82.4,0.582,173
4035017,32280692728,1264.0,82.4,0.332,185
4035114,32281468724,775.0,82.4,0.57,185
4035209,32282228723,759.0,82.4,0.824,169
4035305,32282996723,768.0,81.5,0.835,73
4035407,32283812723,816.0,78.1,0.871,73
4035507,32284612723,800.0,77.3,0.833,73
4035604,32285388723,776.0,77.3,0.854,73
4035703,32286180723,792.0,75.8,0.836,73
4035801,32286964726,784.0,75.8,0.856,73
4035901,32287764725,799.0,75.8,0.864,73
4035999,32288548724,783.0,75.8,0.854,73
4036102,32289372723,823.0,75.8,0.86,73
4036206,32290204723,832.0,75.0,0.845,73
4036310,32291036723,832.0,75.0,0.835,73
4036410,32291836727,800.0,75.0,0.838,73
4036511,32292644724,807.0,75.0,0.845,73
4036611,32293444723,799.0,75.0,0.844,73
4036709,32294228728,784.0,75.0,0.857,73
4036810,32295036726,807.0,74.3,0.858,73
4036906,32295804727,768.0,74.3,0.847,73
4037006,32296604723,799.0,75.0,0.874,73
4037109,32297428723,824.0,75.0,0.859,73
4037211,32298244726,816.0,75.0,0.846,73
4037311,32299044723,799.0,75.0,0.856,73
4037408,32299820723,776.0,75.0,0.864,73
4037506,32300604726,784.0,75.0,0.854,73
4037597,32301332723,727.0,75.0,0.83,73
4037689,32302068724,736.0,76.5,0.847,73
4037782,32302812724,744.0,76.5,0.86,73
4037879,32303588726,776.0,77.3,0.842,73
4037973,32304340723,751.0,77.3,0.816,73
4038067,32305092724,752.0,79.8,0.84,73
4038164,32305868723,775.0,79.8,0.847,73
4038262,32306652723,784.0,79.8,0.834,73
4038359,32307428723,776.0,79.8,0.85,73
4038456,32308204726,776.0,77.3,0.858,73
4038555,32308996728,792.0,77.3,0.871,73
4038653,32309780727,783.0,77.3,0.848,73
4038754,32310588723,807.0,77.3,0.874,73
4038857,32311412723,824.0,76.5,0.851,73
4038956,32312204723,792.0,76.5,0.841,73
4039053,32312980723,776.0,76.5,0.856,73
4039154,32313788727,808.0,75.8,0.868,73
4039257,32314612723,823.0,75.8,0.854,73
4039354,32315388724,776.0,75.8,0.841,73
4039450,32316156723,767.0,75.8,0.862,73
4039548,32316940723,784.0,75.8,0.866,73
4039646,32317724727,784.0,76.5,0.856,73
4039743,32318500723,775.0,76.5,0.861,73
4039846,32319324724,824.0,76.5,0.87,73
4039953,32320180726,856.0,76.5,0.848,73
4040059,32321028723,847.0,76.5,0.831,73
4040165,32321876725,848.0,76.5,0.838,73
4040273,32322740723,863.0,72.8,0.813,73
4040377,32323572726,832.0,72.1,0.815,73
4040479,32324388723,815.0,72.1,0.831,73
4040582,32325212723,824.0,72.1,0.833,73
4040683,32326020723,808.0,72.1,0.829,73
4040781,32326804727,784.0,72.1,0.843,73
4040882,32327612723,807.0,72.8,0.861,73
4040985,32328436726,824.0,72.8,0.852,73
4041086,32329244723,807.0,73.5,0.853,73
4041186,32330044723,800.0,74.3,0.857,73
4041289,32330868723,824.0,74.3,0.866,73
4041395,32331716723,848.0,74.3,0.862,73
4041497,32332532723,816.0,74.3,0.852,73
4041600,32333356723,824.0,73.5,0.86,73
4041704,32334188723,832.0,72.8,0.851,73
4041809,32335028724,840.0,72.8,0.845,73
4041911,32335844725,816.0,72.8,0.85,73
4042012,32336652723,807.0,72.8,0.872,73
4042114,32337468727,816.0,72.8,0.857,73
4042211,32338244727,776.0,73.5,0.852,73
4042308,32339020723,775.0,73.5,0.857,73
4042406,32339804723,784.0,73.5,0.859,73
4042503,32340580723,776.0,74.3,0.842,73
4042596,32341324725,744.0,76.5,0.831,73
4042694,32342108726,784.0,76.5,0.852,73
4042794,32342908726,800.0,76.5,0.858,73
4042896,32343724722,815.0,76.5,0.859,73
4042997,32344532726,808.0,76.5,0.851,73
4043099,32345348726,816.0,76.5,0.865,73
4043204,32346188723,839.0,75.0,0.858,73
4043305,32346996723,808.0,74.3,0.844,73
4043406,32347804723,808.0,74.3,0.865,73
4043509,32348628723,824.0,74.3,0.861,73
4043611,32349444723,816.0,73.5,0.85,73
4043711,32350244723,800.0,73.5,0.865,73
4043812,32351052726,808.0,74.3,0.866,73
4043910,32351836723,783.0,74.3,0.857,73
4044005,32352596723,760.0,74.3,0.857,73
4044104,32353388724,792.0,74.3,0.859,73
4044198,32354140723,751.0,75.0,0.852,73
4044291,32354884723,744.0,75.8,0.835,73
4044383,32355620723,736.0,76.5,0.841,73
4044563,32357060727,1440.0,76.5,0.76,185
4044597,32357332723,271.0,76.5,0.563,173
4044734,32358428723,1096.0,76.5,0.799,169
4044818,32359100723,672.0,76.5,0.827,169
4044902,32359772726,672.0,76.5,0.852,169
4044987,32360452723,679.0,76.5,0.87,169
4045074,32361148723,696.0,76.5,0.865,73
4045165,32361876723,728.0,78.9,0.869,73
4045262,32362652723,776.0,78.9,0.861,73
4045358,32363420723,768.0,78.9,0.857,73
4045454,32364188724,768.0,78.1,0.866,73
4045556,32365004726,816.0,78.1,0.865,73
4045659,32365828725,823.0,78.1,0.845,73
4045759,32366628723,799.0,77.3,0.84,73
4045861,32367444723,816.0,75.9,0.828,73
4045960,32368236724,792.0,75.8,0.83,73
4046064,32369068727,832.0,75.0,0.833,73
4046166,32369884726,815.0,73.5,0.822,73
4046263,32370660724,775.0,73.5,0.838,73
4046364,32371468724,808.0,73.5,0.846,73
4046464,32372268723,799.0,74.3,0.857,73
4046560,32373036723,768.0,75.0,0.85,73
4046654,32373788723,752.0,75.0,0.86,73
4046749,32374548725,760.0,75.8,0.862,73
4046843,32375300726,752.0,77.3,0.838,73
4046936,32376044723,743.0,78.1,0.849,73
4047030,32376796723,752.0,78.9,0.852,73
4047128,32377580727,784.0,78.9,0.862,73
4047222,32378332723,751.0,79.8,0.854,73
4047319,32379108723,776.0,79.8,0.868,73
4047417,32379892723,784.0,79.8,0.864,73
4047512,32380652724,760.0,78.9,0.864,73
4047604,32381388727,736.0,79.8,0.856,73
4047698,32382140726,751.0,79.8,0.872,73
4047794,32382908724,767.0,78.9,0.859,73
4047886,32383644723,735.0,78.9,0.855,73
4047979,32384388723,744.0,79.8,0.868,73
4048073,32385140727,752.0,79.8,0.868,73
4048167,32385892723,751.0,79.8,0.866,73
4048261,32386644723,752.0,79.8,0.858,73
4048356,32387404726,760.0,79.8,0.876,73
4048454,32388188723,783.0,79.8,0.871,73
4048556,32389004723,816.0,79.8,0.857,73
4048656,32389804723,800.0,79.8,0.827,73
4048754,32390588723,784.0,78.9,0.851,73
4048857,32391412723,824.0,76.5,0.837,73
4048961,32392244726,832.0,76.5,0.819,73
4049063,32393060723,815.0,75.0,0.795,73
4049162,32393852723,792.0,75.0,0.817,73
4049260,32394636725,784.0,75.0,0.829,73
4049360,32395436726,800.0,75.0,0.833,73
4049455,32396196725,759.0,75.0,0.838,73
4049553,32396980727,784.0,75.8,0.857,73
4049650,32397756724,775.0,75.8,0.845,73
4049742,32398492723,735.0,76.5,0.859,73
4049839,32399268723,776.0,76.5,0.87,73
4049938,32400060723,792.0,76.5,0.871,73
4050036,32400844726,784.0,76.5,0.859,73
4050135,32401636723,791.0,76.5,0.859,73
4050235,32402436727,800.0,76.5,0.859,73
4050334,32403228724,791.0,76.5,0.858,73
4050432,32404012724,784.0,76.5,0.852,73
4050531,32404804727,792.0,75.8,0.863,73
4050630,32405596723,791.0,75.8,0.866,73
4050729,32406388723,792.0,75.8,0.857,73
4050830,32407196723,808.0,75.8,0.852,73
4050931,32408004723,808.0,75.8,0.855,73
4051031,32408804728,800.0,75.8,0.862,73
4051128,32409580724,775.0,75.8,0.856,73
4051226,32410364727,784.0,75.8,0.876,73
4051326,32411164725,799.0,75.8,0.867,73
4051427,32411972722,807.0,75.0,0.858,73
4051527,32412772723,800.0,75.0,0.848,73
4051629,32413588723,816.0,75.0,0.872,73
4051737,32414452727,864.0,75.0,0.87,73
4051849,32415348723,895.0,75.0,0.852,73
4051956,32416204725,856.0,74.3,0.821,73
4052062,32417052725,848.0,73.5,0.834,73
4052168,32417900728,848.0,70.8,0.828,73
4052271,32418724726,823.0,70.8,0.833,73
4052371,32419524723,799.0,70.8,0.832,73
4052470,32420316727,792.0,70.8,0.861,73
4052573,32421140723,823.0,70.8,0.853,73
4052671,32421924723,784.0,72.8,0.853,73
4052772,32422732726,808.0,72.8,0.859,73
4052874,32423548724,815.0,73.5,0.868,73
4052980,32424396723,847.0,73.5,0.877,73
4053085,32425236723,840.0,73.5,0.859,73
4053189,32426068726,832.0,73.5,0.866,73
4053292,32426892727,824.0,72.8,0.868,73
4053395,32427716723,823.0,72.8,0.86,73
4053496,32428524727,808.0,72.8,0.853,73
4053599,32429348725,823.0,72.8,0.875,73
4053703,32430180723,831.0,72.8,0.865,73
4053803,32430980726,800.0,72.8,0.849,73
4053902,32431772724,791.0,72.8,0.859,73
4054005,32432596724,824.0,72.8,0.866,73
4054108,32433420723,823.0,72.8,0.854,73
4054209,32434228725,808.0,72.8,0.854,73
4054313,32435060725,832.0,72.8,0.867,73
4054418,32435900727,840.0,72.8,0.872,73
4054523,32436740723,839.0,72.8,0.856,73
4054626,32437564725,824.0,72.8,0.876,73
4054732,32438412723,847.0,72.8,0.88,73
4054839,32439268723,856.0,72.1,0.872,73
4054943,32440100725,832.0,72.1,0.863,73
4055047,32440932727,832.0,72.1,0.873,73
4055152,32441772723,839.0,71.4,0.865,73
4055252,32442572723,800.0,71.4,0.852,73
4055350,32443356724,784.0,72.1,0.862,73
4055451,32444164727,808.0,72.1,0.867,73
4055549,32444948725,783.0,72.1,0.836,73
4055648,32445740727,792.0,74.3,0.84,73
4055748,32446540726,799.0,75.0,0.859,73
4055855,32447396723,855.0,75.0,0.87,73
4055964,32448268724,872.0,75.0,0.864,73
4056065,32449076723,807.0,75.0,0.858,73
4056164,32449868728,792.0,75.0,0.857,73
4056263,32450660723,791.0,75.0,0.864,73
4056359,32451428723,768.0,75.8,0.846,73
4056452,32452172723,744.0,75.8,0.869,73
4056549,32452948725,776.0,75.8,0.857,73
4056645,32453716726,768.0,75.8,0.849,73
4056738,32454460725,743.0,77.3,0.83,73
4056832,32455212724,751.0,78.1,0.86,73
4056932,32456012723,799.0,78.1,0.857,73
4057028,32456780723,768.0,78.1,0.85,73
4057128,32457580727,800.0,78.1,0.862,73
4057236,32458444723,863.0,78.1,0.866,73
4057346,32459324726,880.0,77.3,0.831,73
4057449,32460148723,823.0,75.0,0.831,73
4057553,32460980726,832.0,75.0,0.846,73
4057658,32461820723,839.0,72.8,0.819,73
4057757,32462612724,792.0,72.8,0.823,73
4057858,32463420724,808.0,72.8,0.83,73
4057961,32464244724,824.0,72.8,0.845,73
4058068,32465100723,855.0,72.1,0.833,73
4058172,32465932724,832.0,72.1,0.83,73
4058273,32466740723,807.0,72.8,0.847,73
4058375,32467556723,816.0,72.8,0.848,73
4058472,32468332725,776.0,73.5,0.848,73
4058570,32469116723,783.0,74.3,0.876,73
4058669,32469908723,792.0,74.3,0.873,73
4058766,32470684723,776.0,74.3,0.864,73
4058863,32471460723,776.0,75.8,0.864,73
4058964,32472268725,808.0,75.8,0.872,73
4059067,32473092723,823.0,75.8,0.867,73
4059167,32473892723,800.0,75.8,0.867,73
4059270,32474716725,824.0,75.8,0.873,73
4059376,32475564723,847.0,75.0,0.864,73
4059476,32476364723,800.0,75.0,0.849,73
4059576,32477164726,800.0,75.0,0.871,73
4059677,32477972727,808.0,74.3,0.866,73
4059779,32478788724,815.0,74.3,0.863,73
4059879,32479588723,799.0,74.3,0.854,73
4059977,32480372723,784.0,75.0,0.876,73
4060078,32481180726,808.0,74.3,0.869,73
4060182,32482012723,831.0,74.3,0.868,73
4060282,32482812724,800.0,75.0,0.851,73
4060383,32483620723,807.0,74.3,0.87,73
4060487,32484452724,832.0,74.3,0.874,73
4060589,32485268725,816.0,74.3,0.84,73
4060686,32486044723,775.0,74.3,0.853,73
4060782,32486812725,768.0,74.3,0.869,73
4060879,32487588722,775.0,74.3,0.854,73
4060975,32488356723,768.0,75.0,0.851,73
4061072,32489132722,775.0,77.3,0.851,73
4061170,32489916723,784.0,77.3,0.857,73
4061268,32490700723,784.0,77.3,0.865,73
4061369,32491508723,808.0,77.3,0.87,73
4061472,32492332723,824.0,77.3,0.852,73
4061571,32493124724,792.0,76.5,0.856,73
4061678,32493980723,855.0,76.5,0.861,73
4061787,32494852724,872.0,75.8,0.855,73
4061893,32495700728,848.0,74.3,0.824,73
4062000,32496556723,855.0,72.8,0.832,73
4062113,32497460723,904.0,70.8,0.817,73
4062220,32498316723,856.0,70.1,0.809,73
4062324,32499148723,832.0,70.1,0.832,73
4062427,32499972723,824.0,70.1,0.832,73
4062528,32500780724,808.0,70.1,0.831,73
4062624,32501548724,768.0,70.8,0.848,73
4062720,32502316724,768.0,72.1,0.87,73
4062817,32503092726,776.0,72.8,0.871,73
4062914,32503868723,775.0,74.3,0.848,73
4063009,32504628723,760.0,77.3,0.845,73
4063105,32505396723,768.0,77.3,0.852,73
4063200,32506156723,760.0,78.1,0.835,73
4063291,32506884727,728.0,78.1,0.827,73
4063382,32507612723,727.0,78.1,0.836,73
4063475,32508356726,744.0,78.9,0.835,73
4063568,32509100725,743.0,78.9,0.825,73
4063663,32509860723,759.0,78.9,0.837,73
4063761,32510644725,784.0,78.9,0.842,73
4063856,32511404723,759.0,78.9,0.838,73
4063947,32512132723,728.0,80.6,0.837,73
4064042,32512892724,760.0,80.6,0.85,73
4064140,32513676725,784.0,78.9,0.86,73
4064242,32514492724,815.0,78.9,0.852,73
4064344,32515308723,815.0,78.9,0.855,73
4064453,32516180723,872.0,76.5,0.861,73
4064563,32517060725,880.0,76.5,0.839,73
4064666,32517884723,823.0,73.5,0.812,73
4064767,32518692723,808.0,73.5,0.824,73
4064866,32519484724,792.0,73.5,0.843,73
4064967,32520292723,807.0,73.5,0.848,73
4065067,32521092725,800.0,73.5,0.84,73
4065167,32521892723,799.0,74.3,0.864,73
4065268,32522700723,808.0,74.3,0.869,73
4065369,32523508723,808.0,74.3,0.864,73
4065468,32524300723,792.0,74.3,0.847,73
4065569,32525108723,808.0,74.3,0.854,73
4065670,32525916723,808.0,74.3,0.854,73
4065768,32526700726,784.0,74.3,0.859,73
4065862,32527452723,751.0,75.0,0.845,73
4065960,32528236723,784.0,75.0,0.879,73
4066060,32529036726,800.0,75.0,0.874,73
4066165,32529876723,839.0,75.0,0.871,73
4066270,32530716723,840.0,75.0,0.857,73
4066377,32531572723,856.0,74.3,0.87,73
4066486,32532444722,871.0,74.3,0.852,73
4066588,32533260723,816.0,73.5,0.836,73
4066690,32534076723,816.0,73.5,0.864,73
4066793,32534900723,824.0,72.8,0.845,73
4066892,32535692726,792.0,72.8,0.853,73
4066995,32536516723,823.0,72.8,0.866,73
4067101,32537364724,848.0,72.8,0.867,73
4067205,32538196723,831.0,72.8,0.858,73
4067310,32539036725,840.0,72.8,0.867,73
4067417,32539892723,855.0,72.8,0.87,73
4067523,32540740723,848.0,72.1,0.844,73
4067624,32541548723,808.0,72.1,0.87,73
4067727,32542372727,824.0,72.1,0.876,73
4067831,32543204723,831.0,72.1,0.843,73
4067929,32543988726,784.0,72.1,0.838,73
4068025,32544756724,767.0,72.1,0.853,73
4068120,32545516723,759.0,72.8,0.847,73
4068212,32546252723,736.0,74.3,0.835,73
4068338,32547260723,1008.0,74.3,0.554,169
4068477,32548372726,1112.0,74.3,0.786,169
4068567,32549092725,719.0,74.3,0.809,169
4068659,32549828726,736.0,74.3,0.83,169
4068752,32550572723,743.0,74.3,0.828,169
4068843,32551300723,728.0,74.3,0.841,73
4068937,32552052725,752.0,76.5,0.874,73
4069035,32552836724,783.0,76.5,0.862,73
4069134,32553628722,791.0,76.5,0.861,73
4069231,32554404726,776.0,77.3,0.848,73
4069330,32555196726,792.0,77.3,0.867,73
4069431,32556004723,807.0,76.5,0.867,73
4069534,32556828722,823.0,75.8,0.859,73
4069633,32557620723,792.0,75.8,0.838,73
4069736,32558444723,824.0,75.8,0.87,73
4069842,32559292723,848.0,75.8,0.849,73
4069948,32560140722,847.0,74.3,0.838,73
4070050,32560956726,816.0,73.5,0.828,73
4070151,32561764726,808.0,73.5,0.845,73
4070254,32562588725,823.0,72.8,0.844,73
4070352,32563372726,784.0,72.8,0.831,73
4070450,32564156723,783.0,73.5,0.862,73
4070550,32564956723,800.0,73.5,0.869,73
4070650,32565756723,800.0,74.3,0.868,73
4070743,32566500723,744.0,75.0,0.843,73
4070835,32567236723,736.0,75.0,0.852,73
4070932,32568012724,776.0,76.5,0.852,73
4071035,32568836723,823.0,76.5,0.864,73
4071137,32569652726,816.0,76.5,0.844,73
4071242,32570492727,840.0,75.0,0.866,73
4071347,32571332727,840.0,75.0,0.86,73
4071449,32572148727,816.0,73.5,0.85,73
4071548,32572940723,791.0,73.5,0.862,73
4071651,32573764723,824.0,73.5,0.863,73
4071756,32574604727,840.0,72.8,0.86,73
4071857,32575412725,807.0,72.8,0.847,73
4071960,32576236724,823.0,72.8,0.872,73
4072069,32577108723,871.0,72.8,0.869,73
4072181,32578004723,896.0,72.8,0.869,73
4072288,32578860726,856.0,72.8,0.847,73
4072393,32579700723,839.0,71.4,0.86,73
4072496,32580524723,824.0,71.4,0.859,73
4072595,32581316726,792.0,71.4,0.847,73
4072687,32582052723,735.0,72.8,0.849,73
4072781,32582804723,752.0,72.8,0.853,73
4072874,32583548723,744.0,72.8,0.841,73
4072970,32584316724,768.0,75.8,0.818,73
4073067,32585092727,776.0,77.3,0.824,73
4073169,32585908724,815.0,77.3,0.847,73
4073275,32586756726,848.0,77.3,0.853,73
4073380,32587596723,839.0,77.3,0.864,73
4073487,32588452726,856.0,77.3,0.86,73
4073593,32589300723,847.0,73.5,0.842,73
4073695,32590116724,816.0,73.5,0.854,73
4073800,32590956726,840.0,71.4,0.851,73
4073904,32591788727,832.0,71.4,0.858,73
4074006,32592604725,815.0,71.4,0.851,73
4074111,32593444723,839.0,71.4,0.867,73
4074220,32594316723,872.0,71.4,0.864,73
4074325,32595156728,840.0,71.4,0.852,73
4074429,32595988726,831.0,71.4,0.876,73
4074536,32596844726,856.0,71.4,0.87,73
4074642,32597692726,848.0,71.4,0.871,73
4074746,32598524727,832.0,71.4,0.869,73
4074852,32599372723,847.0,71.4,0.874,73
4074959,32600228723,856.0,70.8,0.869,73
4075061,32601044726,816.0,70.8,0.854,73
4075163,32601860723,815.0,71.4,0.864,73
4075269,32602708723,848.0,70.8,0.873,73
4075374,32603548723,840.0,70.8,0.863,73
4075474,32604348722,799.0,71.4,0.844,73
4075574,32605148726,800.0,72.1,0.862,73
4075676,32605964723,815.0,73.5,0.849,73
4075774,32606748723,784.0,73.5,0.838,73
4075874,32607548724,800.0,73.5,0.856,73
4075979,32608388728,840.0,73.5,0.855,73
4076078,32609180727,791.0,75.0,0.838,73
4076174,32609948726,767.0,75.0,0.836,73
4076270,32610716723,767.0,75.0,0.832,73
4076366,32611484733,768.0,75.8,0.833,73
4076459,32612228723,743.0,76.5,0.826,73
4076553,32612980724,752.0,78.1,0.832,73
4076652,32613772723,791.0,78.1,0.835,73
4076752,32614572723,800.0,78.1,0.835,73
4076853,32615380726,808.0,78.1,0.854,73
4076958,32616220723,839.0,78.1,0.865,73
4077067,32617092723,872.0,75.8,0.861,73
4077172,32617932722,839.0,75.0,0.845,73
4077278,32618780724,848.0,74.3,0.856,73
4077383,32619620723,839.0,71.4,0.843,73
4077487,32620452727,832.0,71.4,0.835,73
4077588,32621260725,807.0,71.4,0.829,73
4077692,32622092723,831.0,71.4,0.861,73
4077803,32622980727,888.0,71.4,0.864,73
4077910,32623836726,855.0,71.4,0.844,73
4078012,32624652724,815.0,71.4,0.848,73
4078111,32625444723,791.0,72.1,0.863,73
4078211,32626244723,800.0,72.1,0.874,73
4078309,32627028726,784.0,73.5,0.853,73
4078406,32627804723,775.0,74.3,0.85,73
4078506,32628604727,800.0,75.0,0.873,73
4078611,32629444723,839.0,75.0,0.871,73
4078718,32630300724,856.0,75.0,0.861,73
4078823,32631140723,839.0,75.0,0.848,73
4078929,32631988723,848.0,75.0,0.862,73
4079036,32632844723,856.0,71.4,0.852,73
4079146,32633724723,880.0,71.4,0.854,73
4079253,32634580726,856.0,70.8,0.827,73
4079357,32635412724,831.0,70.8,0.856,73
4079468,32636300723,887.0,70.1,0.858,73
4079580,32637196723,896.0,70.1,0.839,73
4079685,32638036724,840.0,70.1,0.836,73
4079790,32638876727,840.0,70.1,0.859,73
4079903,32639780723,903.0,70.1,0.846,73
4080020,32640716723,936.0,68.2,0.83,73
4080136,32641644723,928.0,67.6,0.821,73
4080247,32642532723,888.0,67.6,0.833,73
4080358,32643420723,888.0,67.6,0.844,73
4080470,32644316726,896.0,67.0,0.845,73
4080579,32645188723,871.0,67.6,0.833,73
4080683,32646020723,832.0,67.6,0.847,73
4080788,32646860723,840.0,67.6,0.865,73
4080896,32647724725,864.0,67.6,0.871,73
4081007,32648612727,888.0,67.6,0.873,73
4081113,32649460727,848.0,68.8,0.859,73
4081220,32650316724,855.0,69.4,0.886,73
4081334,32651228727,912.0,69.4,0.894,73
4081452,32652172723,943.0,69.4,0.871,73
4081562,32653052723,880.0,69.4,0.859,73
4081669,32653908726,856.0,69.4,0.886,73
4081778,32654780723,871.0,68.8,0.881,73
4081883,32655620726,840.0,68.8,0.871,73
4081984,32656428724,807.0,70.1,0.866,73
4082089,32657268724,840.0,70.1,0.869,73
4082193,32658100723,831.0,70.1,0.862,73
4082295,32658916727,816.0,71.4,0.853,73
4082400,32659756725,839.0,71.4,0.859,73
4082509,32660628723,871.0,71.4,0.879,73
4082617,32661492724,864.0,71.4,0.864,73
4082724,32662348723,855.0,71.4,0.882,73
4082838,32663260723,912.0,71.4,0.878,73
4082955,32664196723,936.0,70.1,0.845,73
4083063,32665060728,864.0,69.4,0.851,73
4083171,32665924723,863.0,69.4,0.877,73
4083282,32666812723,888.0,69.4,0.855,73
4083384,32667628724,816.0,69.4,0.854,73
4083485,32668436723,807.0,69.4,0.866,73
4083586,32669244726,808.0,69.4,0.878,73
4083683,32670020726,776.0,69.4,0.83,73
4083778,32670780726,760.0,73.5,0.83,73
4083876,32671564723,783.0,74.3,0.817,73
4083977,32672372724,808.0,74.3,0.831,73
4084078,32673180723,807.0,74.3,0.823,73
4084184,32674028723,848.0,74.3,0.855,73
4084297,32674932723,904.0,74.3,0.884,73
4084411,32675844723,912.0,74.3,0.867,73
4084520,32676716723,872.0,74.3,0.866,73
4084631,32677604723,888.0,70.8,0.867,73
4084740,32678476726,872.0,68.8,0.843,73
4084845,32679316723,839.0,68.8,0.868,73
4084953,32680180723,864.0,68.8,0.863,73
4085058,32681020722,839.0,68.8,0.866,73
4085160,32681836723,816.0,68.8,0.837,73
4085255,32682596722,759.0,69.4,0.772,73
4085553,32684980723,0.0,0.0,0.743,75
4085642,32685692723,712.0,84.3,0.84,73
4085740,32686476724,784.0,80.2,0.876,73
4085850,32687356724,880.0,76.5,0.865,73
4085969,32688308723,951.0,76.5,0.814,169
4086095,32689316724,1008.0,76.5,0.341,185
4086209,32690228726,912.0,76.5,0.82,169
4086321,32691124723,895.0,76.5,0.852,169
4086428,32691980724,856.0,76.5,0.878,169
4086528,32692780723,799.0,77.0,0.86,73
4086629,32693588726,808.0,76.5,0.867,73
4086733,32694420723,831.0,75.4,0.86,73
4086840,32695276723,856.0,74.3,0.851,73
4086952,32696172726,896.0,73.2,0.836,73
4087062,32697052726,880.0,72.1,0.825,73
4087184,32698028727,976.0,72.1,0.824,169
4087227,32698372726,343.0,72.1,0.487,185
4087389,32699668723,1295.0,72.1,0.418,185
4087451,32700164723,496.0,72.1,0.829,169
4087561,32701044723,880.0,72.1,0.85,169
4087665,32701876723,832.0,72.1,0.884,169
4087762,32702652723,776.0,72.1,0.82,73
4087855,32703396724,744.0,72.1,0.838,73
4087946,32704124724,728.0,74.3,0.832,73
4088083,32705220723,1095.0,74.3,0.448,185
4088179,32705988723,768.0,74.3,0.462,185
4088275,32706756723,768.0,74.3,0.464,185
4088339,32707268723,512.0,74.3,0.835,169
4088449,32708148723,880.0,74.3,0.847,169
4088560,32709036723,888.0,74.3,0.859,169
4088667,32709892722,855.0,72.8,0.87,73
4088772,32710732725,840.0,72.1,0.886,73
4088878,32711580723,847.0,71.4,0.874,73
4088987,32712452724,872.0,71.4,0.874,73
4089094,32713308723,855.0,71.4,0.878,73
4089199,32714148723,840.0,71.4,0.88,73
4089309,32715028723,880.0,71.4,0.865,73
4089416,32715884727,856.0,70.8,0.888,73
4089520,32716716724,831.0,70.8,0.872,73
4089624,32717548726,832.0,70.8,0.875,73
4089728,32718380723,831.0,70.8,0.869,73
4089832,32719212723,832.0,71.4,0.874,73
4089932,32720012723,800.0,72.1,0.869,73
4090034,32720828723,816.0,72.1,0.867,73
4090140,32721676723,848.0,72.1,0.872,73
4090242,32722492723,816.0,72.1,0.835,73
4090351,32723364723,872.0,72.1,0.876,73
4090460,32724236724,872.0,72.1,0.868,73
4090564,32725068722,831.0,72.1,0.863,73
4090665,32725876728,808.0,72.1,0.873,73
4090770,32726716724,839.0,72.1,0.862,73
4090871,32727524723,807.0,72.1,0.856,73
4090969,32728308723,784.0,72.1,0.858,73
4091072,32729132723,824.0,72.8,0.877,73
4091177,32729972727,840.0,72.1,0.875,73
4091280,32730796723,823.0,72.8,0.86,73
4091389,32731668724,872.0,72.8,0.878,73
4091499,32732548726,880.0,72.8,0.871,73
4091603,32733380722,831.0,72.1,0.863,73
4091706,32734204725,824.0,72.8,0.871,73
4091805,32734996727,792.0,72.8,0.864,73
4091902,32735772726,775.0,72.8,0.868,73
4092002,32736572723,799.0,72.8,0.86,73
4092101,32737364724,792.0,72.8,0.851,73
4092202,32738172723,807.0,74.3,0.853,73
4092301,32738964723,792.0,75.0,0.86,73
4092404,32739788726,824.0,75.0,0.862,73
4092511,32740644723,855.0,75.0,0.852,73
4092619,32741508723,864.0,75.0,0.867,73
4092734,32742428723,920.0,74.3,0.869,73
4092848,32743340723,912.0,72.8,0.831,73
4092957,32744212724,872.0,70.1,0.822,73
4093073,32745140723,927.0,69.4,0.826,73
4093184,32746028723,888.0,68.8,0.81,73
4093297,32746932726,904.0,67.6,0.825,73
4093416,32747884726,952.0,67.6,0.809,169
4093532,32748812724,927.0,67.6,0.797,169
4093591,32749284724,472.0,67.6,0.471,185
4093686,32750044726,760.0,67.6,0.587,169
4093812,32751052724,1007.0,67.6,0.509,169
4093940,32752076727,1024.0,67.6,0.477,185
4094053,32752980723,903.0,67.6,0.474,185
4094167,32753892727,912.0,67.6,0.454,185
4094233,32754420724,527.0,67.6,0.858,169
4094363,32755460723,1039.0,67.6,0.891,73
4094489,32756468724,1008.0,66.4,0.864,73
4094619,32757508726,1040.0,65.8,0.867,73
4094745,32758516723,1007.0,65.8,0.839,73
4094858,32759420723,904.0,66.4,0.852,73
4094971,32760324724,904.0,66.4,0.865,73
4095086,32761244723,919.0,66.4,0.851,73
4095199,32762148723,904.0,66.4,0.868,73
4095313,32763060723,912.0,65.8,0.87,73
4095429,32763988725,928.0,65.2,0.868,73
4095541,32764884723,895.0,65.8,0.821,73
4095648,32765740726,856.0,66.4,0.897,73
4095759,32766628723,887.0,66.4,0.906,73
4095866,32767484723,856.0,66.4,0.875,73
4095972,32768332727,848.0,67.0,0.877,73
4096084,32769228723,895.0,67.0,0.886,73
4096200,32770156726,928.0,67.0,0.888,73
4096311,32771044723,887.0,67.6,0.881,73
4096417,32771892723,848.0,67.6,0.876,73
4096524,32772748726,856.0,70.1,0.889,73
4096632,32773612727,864.0,69.4,0.877,73
4096735,32774436724,823.0,70.1,0.876,73
4096839,32775268726,832.0,70.1,0.874,73
4096944,32776108728,840.0,70.1,0.869,73
4097049,32776948723,839.0,70.8,0.864,73
4097153,32777780723,832.0,71.4,0.869,73
4097262,32778652723,872.0,71.4,0.868,73
4097371,32779524726,872.0,71.4,0.879,73
4097477,32780372723,847.0,71.4,0.885,73
4097587,32781252723,880.0,71.4,0.887,73
4097700,32782156726,904.0,70.8,0.879,73
4097808,32783020723,863.0,69.4,0.874,73
4097917,32783892723,872.0,68.8,0.887,73
4098026,32784764726,872.0,68.8,0.88,73
4098131,32785604726,840.0,68.8,0.863,73
4098233,32786420723,815.0,68.8,0.878,73
4098337,32787252722,831.0,69.4,0.864,73
4098440,32788076723,824.0,69.4,0.859,73
4098546,32788924723,848.0,70.8,0.865,73
4098651,32789764723,840.0,71.4,0.88,73
4098754,32790588723,824.0,71.4,0.869,73
4098856,32791404725,816.0,72.1,0.858,73
4098961,32792244723,839.0,72.1,0.864,73
4099065,32793076725,832.0,72.1,0.866,73
4099168,32793900726,824.0,72.1,0.869,73
4099276,32794764723,863.0,72.1,0.883,73
4099386,32795644724,880.0,71.4,0.882,73
4099492,32796492723,847.0,71.4,0.885,73
4099599,32797348724,856.0,71.4,0.889,73
4099706,32798204727,856.0,70.8,0.883,73
4099817,32799092723,887.0,70.1,0.877,73
4099925,32799956723,864.0,70.1,0.88,73
4100036,32800844723,888.0,69.4,0.891,73
4100151,32801764723,920.0,69.4,0.879,73
4100265,32802676727,912.0,68.2,0.851,73
4100373,32803540726,863.0,69.4,0.878,73
4100489,32804468725,927.0,67.6,0.863,73
4100598,32805340723,871.0,67.6,0.86,73
4100706,32806204726,864.0,67.6,0.875,73
4100819,32807108723,903.0,67.6,0.887,73
4100933,32808020723,912.0,66.4,0.868,73
4101042,32808892723,872.0,66.4,0.883,73
4101152,32809772723,880.0,68.2,0.888,73
4101263,32810660723,888.0,68.2,0.883,73
4101369,32811508724,848.0,68.2,0.882,73
4101477,32812372723,863.0,68.8,0.905,73
4101589,32813268723,896.0,68.2,0.893,73
4101699,32814148723,880.0,68.2,0.888,73
4101816,32815084726,936.0,68.2,0.896,73
4101934,32816028723,943.0,68.2,0.873,73
4102045,32816916726,888.0,67.6,0.87,73
4102158,32817820723,903.0,67.6,0.886,73
4102271,32818724723,904.0,67.0,0.877,73
4102376,32819564724,840.0,67.0,0.889,73
4102482,32820412724,848.0,67.0,0.907,73
4102590,32821276723,863.0,67.6,0.9,73
4102698,32822140723,864.0,67.6,0.875,73
4102803,32822980724,840.0,69.4,0.877,73
4102912,32823852724,872.0,69.4,0.894,73
4103019,32824708723,855.0,69.4,0.872,73
4103125,32825556723,848.0,70.1,0.887,73
4103234,32826428726,872.0,70.1,0.882,73
4103342,32827292724,863.0,69.4,0.873,73
4103446,32828124723,831.0,69.4,0.869,73
4103552,32828972722,847.0,70.1,0.882,73
4103655,32829796726,824.0,70.8,0.874,73
4103755,32830596723,799.0,70.8,0.864,73
4103855,32831396723,800.0,70.8,0.861,73
4103957,32832212727,816.0,72.1,0.861,73
4104058,32833020725,807.0,72.8,0.838,73
4104156,32833804723,783.0,73.5,0.83,73
4104258,32834620723,816.0,73.5,0.83,73
4104361,32835444725,824.0,73.5,0.845,73
4104463,32836260724,815.0,73.5,0.845,73
4104570,32837116724,856.0,73.5,0.867,73
4104681,32838004723,887.0,73.5,0.887,73
4104790,32838876726,872.0,73.5,0.874,73
4104897,32839732727,856.0,72.8,0.887,73
4105009,32840628723,895.0,70.1,0.889,73
4105124,32841548723,920.0,70.1,0.877,73
4105234,32842428726,880.0,68.8,0.862,73
4105341,32843284722,855.0,68.8,0.88,73
4105450,32844156723,872.0,68.8,0.881,73
4105554,32844988722,831.0,68.8,0.862,73
4105654,32845788723,800.0,68.8,0.879,73
4105756,32846604724,816.0,70.1,0.875,73
4105855,32847396723,791.0,70.1,0.859,73
4105957,32848212726,816.0,72.1,0.86,73
4106061,32849044728,832.0,72.1,0.864,73
4106168,32849900726,855.0,72.1,0.861,73
4106272,32850732723,831.0,72.1,0.869,73
4106377,32851572723,840.0,72.1,0.878,73
4106483,32852420723,848.0,72.1,0.871,73
4106587,32853252724,832.0,72.1,0.861,73
4106691,32854084726,832.0,72.1,0.916,73
4106801,32854964723,879.0,72.1,0.855,73
4106905,32855796723,832.0,72.1,0.831,73
4107011,32856644723,848.0,71.4,0.869,73
4107113,32857460727,816.0,72.1,0.724,73
4107413,32859860723,0.0,0.0,0.745,75
4107506,32860604723,744.0,80.6,0.798,73
4107591,32861284723,680.0,84.3,0.82,73
4107677,32861972723,688.0,87.2,0.843,73
4107763,32862660723,688.0,87.2,0.875,73
4107852,32863372723,712.0,87.2,0.88,73
4107944,32864108723,736.0,85.7,0.878,73
4108036,32864844726,736.0,84.3,0.858,73
4108130,32865596724,751.0,82.9,0.858,73
4108228,32866380723,783.0,81.5,0.847,73
4108327,32867172727,792.0,81.5,0.827,73
4108424,32867948723,775.0,81.5,0.815,73
4108525,32868756723,808.0,79.8,0.815,73
4108629,32869588723,832.0,77.3,0.797,73
4108730,32870396725,808.0,76.5,0.774,73
4108833,32871220726,824.0,76.5,0.783,169
4108936,32872044724,823.0,76.5,0.781,169
4109037,32872852723,807.0,76.5,0.758,169
4109134,32873628724,776.0,76.5,0.784,169
4109233,32874420723,791.0,76.5,0.788,169
4109270,32874716723,296.0,76.5,0.546,173
4109381,32875604723,888.0,76.5,0.47,185
4109468,32876300723,696.0,76.5,0.544,169
4109632,32877612724,1312.0,76.5,0.769,169
4109672,32877932723,319.0,76.5,0.509,169
4109773,32878740725,808.0,76.5,0.48,185
4109864,32879468723,727.0,76.5,0.541,169
4110027,32880772726,1304.0,76.5,0.766,185
4110063,32881060724,287.0,76.5,0.56,173
4110169,32881908723,847.0,76.5,0.557,169
4110240,32882476723,568.0,76.5,0.814,169
4110344,32883308723,832.0,76.5,0.811,169
4110447,32884132723,824.0,76.5,0.836,169
4110553,32884980723,848.0,76.5,0.86,169
4110662,32885852724,872.0,76.5,0.888,169
4110769,32886708724,856.0,76.5,0.854,169
4110877,32887572724,864.0,76.5,0.85,169
4110986,32888444723,871.0,76.5,0.823,169
4111090,32889276723,832.0,76.5,0.793,169
4111189,32890068725,792.0,76.5,0.781,169
4111286,32890844722,775.0,76.5,0.763,169
4111375,32891556724,712.0,76.5,0.834,169
4111467,32892292723,735.0,76.5,0.855,169
4111561,32893044723,752.0,76.5,0.861,169
4111658,32893820723,776.0,76.5,0.849,169
4111757,32894612725,792.0,76.5,0.848,169
4111861,32895444723,831.0,76.5,0.84,169
4111969,32896308724,864.0,76.5,0.804,169
4112074,32897148723,839.0,76.5,0.782,169
4112178,32897980723,832.0,76.5,0.782,169
4112282,32898812723,832.0,76.5,0.776,169
4112386,32899644723,832.0,76.5,0.763,169
4112426,32899964723,320.0,76.5,0.508,169
4112524,32900748723,784.0,76.5,0.567,169
4112632,32901612726,864.0,76.5,0.543,169
4112702,32902172723,559.0,76.5,0.824,169
4112808,32903020723,848.0,76.5,0.85,169
4112923,32903940726,920.0,76.5,0.893,169
4113046,32904924723,983.0,76.5,0.836,169
4113164,32905868723,944.0,76.5,0.787,169
4113214,32906268725,400.0,76.5,0.478,185
4113323,32907140725,872.0,76.5,0.583,169
4113412,32907852724,711.0,76.5,0.885,169
4113529,32908788723,935.0,76.5,0.85,169
4113646,32909724723,936.0,76.5,0.818,169
4113759,32910628723,904.0,76.5,0.798,169
4113806,32911004724,376.0,76.5,0.481,185
4113904,32911788723,783.0,76.5,0.529,169
4114010,32912636723,848.0,76.5,0.574,169
4114115,32913476728,840.0,76.5,0.482,185
4114266,32914684723,1207.0,76.5,0.764,185
4114320,32915116723,432.0,76.5,0.458,185
4114451,32916164726,1048.0,76.5,0.783,169
4114545,32916916724,751.0,76.5,0.795,169
4114591,32917284723,367.0,76.5,0.483,185
4114750,32918556727,1272.0,76.5,0.752,185
4114856,32919404723,847.0,76.5,0.765,185
4114861,32919444723,40.0,76.5,0.529,189
4114965,32920276723,832.0,76.5,0.83,169
4115074,32921148723,872.0,76.5,0.837,169
4115176,32921964724,816.0,76.5,0.85,169
4115279,32922788726,824.0,76.5,0.865,169
4115384,32923628725,839.0,76.5,0.863,169
4115487,32924452726,824.0,76.5,0.854,169
4115590,32925276726,824.0,76.5,0.865,169
4115697,32926132726,856.0,76.5,0.845,169
4115803,32926980723,847.0,76.5,0.809,169
4115907,32927812723,832.0,76.5,0.801,169
4116010,32928636725,824.0,76.5,0.799,169
4116113,32929460723,823.0,76.5,0.78,169
4116215,32930276726,816.0,76.5,0.77,169
4116320,32931116727,840.0,76.5,0.787,169
4116356,32931404723,287.0,76.5,0.564,173
4116435,32932036723,632.0,76.5,0.523,185
4116537,32932852727,816.0,76.5,0.582,185
4116643,32933700723,847.0,76.5,0.844,169
4116753,32934580723,880.0,76.5,0.883,169
4116866,32935484723,904.0,76.5,0.875,169
4116977,32936372723,888.0,76.5,0.854,169
4117088,32937260724,888.0,76.5,0.828,169
4117199,32938148725,888.0,76.5,0.805,169
4117233,32938420725,272.0,76.5,0.548,173
4117350,32939356724,935.0,76.5,0.482,185
4117515,32940676723,1319.0,76.5,0.312,185
4117625,32941556723,880.0,76.5,0.823,169
4117727,32942372724,816.0,76.5,0.835,169
4117832,32943212724,840.0,76.5,0.856,169
4117940,32944076723,863.0,76.5,0.874,169
4118046,32944924724,848.0,76.5,0.86,169
4118157,32945812723,887.0,76.5,0.849,169
4118272,32946732725,920.0,76.5,0.827,169
4118384,32947628728,896.0,76.5,0.787,169
4118431,32948004723,375.0,76.5,0.479,185
4118597,32949332724,1328.0,76.5,0.297,185
4118714,32950268724,936.0,76.5,0.855,169
4118822,32951132723,863.0,76.5,0.878,169
4118933,32952020723,888.0,76.5,0.888,169
4119039,32952868723,848.0,76.5,0.853,169
4119141,32953684724,816.0,76.5,0.838,169
4119243,32954500726,816.0,76.5,0.842,169
4119345,32955316728,816.0,76.5,0.81,169
4119444,32956108723,791.0,76.5,0.803,169
4119544,32956908724,800.0,76.5,0.813,169
4119647,32957732724,824.0,76.5,0.802,169
4119748,32958540723,807.0,76.5,0.788,169
4119851,32959364723,824.0,76.5,0.785,169
4119886,32959644723,280.0,76.5,0.526,173
4120061,32961044725,1400.0,76.5,0.768,169
4120162,32961852723,807.0,76.5,0.765,185
4120266,32962684724,832.0,76.5,0.768,185
4120368,32963500723,815.0,76.5,0.31,185
4120505,32964596725,1096.0,76.5,0.566,169
4120572,32965132723,535.0,76.5,0.808,169
4120673,32965940723,808.0,76.5,0.827,169
4120775,32966756726,816.0,76.5,0.819,169
4120875,32967556723,799.0,76.5,0.824,169
4120977,32968372727,816.0,76.5,0.849,169
4121082,32969212723,839.0,76.5,0.863,169
4121185,32970036725,824.0,76.5,0.841,169
4121285,32970836723,799.0,76.5,0.852,169
4121385,32971636723,800.0,76.5,0.862,169
4121484,32972428723,792.0,76.5,0.851,169
4121577,32973172727,744.0,76.5,0.853,169
4121670,32973916723,743.0,76.5,0.856,169
4121764,32974668723,752.0,76.5,0.851,169
4121857,32975412726,744.0,76.5,0.834,169
4121950,32976156723,743.0,76.5,0.82,169
4122081,32977204724,1048.0,76.5,0.563,169
4122149,32977748725,544.0,76.5,0.82,169
4122251,32978564723,815.0,76.5,0.818,169
4122356,32979404724,840.0,76.5,0.848,169
4122464,32980268723,863.0,76.5,0.872,169
4122569,32981108726,840.0,76.5,0.862,169
4122677,32981972723,863.0,76.5,0.868,169
4122790,32982876723,904.0,76.5,0.836,169
4122897,32983732727,856.0,76.5,0.796,169
4123003,32984580723,847.0,76.5,0.8,169
4123112,32985452726,872.0,76.5,0.787,169
4123217,32986292726,840.0,76.5,0.765,185
4123320,32987116723,823.0,76.5,0.325,185
4123425,32987956723,840.0,76.5,0.602,185
4123532,32988812723,856.0,76.5,0.826,169
4123638,32989660723,848.0,76.5,0.85,169
4123745,32990516728,856.0,76.5,0.878,169
4123857,32991412724,895.0,76.5,0.884,169
4123964,32992268723,855.0,76.5,0.837,169
4124066,32993084723,816.0,76.5,0.823,169
4124165,32993876723,792.0,76.5,0.819,169
4124261,32994644723,768.0,76.5,0.823,169
4124354,32995388723,744.0,76.5,0.849,169
4124448,32996140723,752.0,76.5,0.859,169
4124542,32996892724,752.0,76.5,0.86,169
4124638,32997660722,767.0,76.5,0.874,169
4124738,32998460726,800.0,76.5,0.877,169
4124839,32999268723,807.0,76.5,0.849,169
4124939,33000068724,800.0,76.5,0.838,169
4125038,33000860725,792.0,76.5,0.846,169
4125135,33001636727,776.0,76.5,0.849,169
4125228,33002380723,743.0,76.5,0.67,169
4125318,33003100728,720.0,76.5,0.9,169
4125409,33003828723,727.0,76.5,0.842,169
4125494,33004508724,680.0,76.5,0.809,169
4125861,33007444723,0.0,0.0,0.816,75
4125960,33008236724,792.0,75.8,0.856,73
4126061,33009044726,808.0,75.0,0.82,73
4126161,33009844723,799.0,75.0,0.822,73
4126261,33010644723,800.0,75.0,0.832,73
4126355,33011396723,752.0,75.0,0.835,73
4126447,33012132727,736.0,75.4,0.843,73
4126535,33012836726,703.0,75.8,0.828,73
4126660,33013836723,999.0,75.8,0.512,169
4126791,33014884727,1048.0,75.8,0.779,169
4126873,33015540723,655.0,75.8,0.805,169
4126953,33016180727,640.0,75.8,0.85,169
4127035,33016836723,655.0,75.8,0.86,169
4127116,33017484723,648.0,75.8,0.83,169
4127285,33018836723,1352.0,75.8,0.785,185
4127375,33019556723,720.0,75.8,0.784,169
4127408,33019820723,264.0,75.8,0.549,173
4127567,33021092726,1272.0,75.8,0.777,169
4127666,33021884725,791.0,75.8,0.759,169
4127710,33022236726,352.0,75.8,0.466,185
4127868,33023500724,1263.0,75.8,0.759,185
4127914,33023868726,368.0,75.8,0.479,185
4128014,33024668724,799.0,75.8,0.475,185
4128167,33025892723,1223.0,75.8,0.759,185
4128217,33026292723,400.0,75.8,0.453,185
4128360,33027436726,1144.0,75.8,0.781,185
4128402,33027772727,336.0,75.8,0.498,185
4128497,33028532726,759.0,75.8,0.545,169
4128568,33029100726,568.0,75.8,0.836,169
4128679,33029988723,887.0,75.8,0.86,169
4128802,33030972723,984.0,75.8,0.864,169
4128923,33031940724,968.0,75.8,0.796,169
4128965,33032276724,336.0,75.8,0.494,185
4129076,33033164723,887.0,75.8,0.487,185
4129189,33034068723,904.0,75.8,0.467,185
4129247,33034532724,464.0,75.8,0.84,169
4129344,33035308724,776.0,75.8,0.818,169
4129439,33036068723,759.0,75.8,0.83,169
4129535,33036836723,768.0,75.8,0.837,169
4129632,33037612727,776.0,75.8,0.819,169
4129731,33038404723,791.0,75.8,0.824,169
4129837,33039252723,848.0,75.8,0.854,169
4129950,33040156723,904.0,75.8,0.867,169
4130060,33041036723,880.0,75.8,0.824,169
4130175,33041956724,920.0,75.8,0.82,169
4130296,33042924723,967.0,75.8,0.791,185
4130305,33042996723,72.0,75.8,0.508,189
4130414,33043868723,872.0,75.8,0.832,169
4130521,33044724723,856.0,75.8,0.876,169
4130629,33045588723,864.0,75.8,0.896,169
4130736,33046444724,856.0,75.8,0.854,169
4130835,33047236723,791.0,75.8,0.827,169
4130935,33048036724,800.0,75.8,0.847,169
4131035,33048836723,799.0,75.8,0.839,169
4131139,33049668723,832.0,75.8,0.799,169
4131239,33050468723,800.0,75.8,0.78,169
4131345,33051316723,848.0,75.8,0.793,169
4131381,33051604726,288.0,75.8,0.532,173
4131493,33052500723,895.0,75.8,0.503,169
4131604,33053388726,888.0,75.8,0.462,185
4131694,33054108723,719.0,75.8,0.552,169
4131760,33054636726,528.0,75.8,0.537,185
4131896,33055724726,1088.0,75.8,0.487,185
4132048,33056940726,1216.0,75.8,0.324,185
4132186,33058044723,1103.0,75.8,0.538,169
4132293,33058900725,856.0,75.8,0.435,185
4132347,33059332723,431.0,75.8,0.784,169
4132450,33060156723,824.0,75.8,0.818,169
4132546,33060924726,768.0,75.8,0.825,169
4132641,33061684722,759.0,75.8,0.832,169
4132734,33062428724,744.0,75.8,0.803,169
4132864,33063468725,1040.0,75.8,0.538,169
4132961,33064244723,775.0,75.8,0.543,169
4133115,33065476723,1232.0,75.8,0.324,185
4133216,33066284723,808.0,75.8,0.555,185
4133312,33067052723,768.0,75.8,0.535,185
4133409,33067828726,776.0,75.8,0.548,185
4133545,33068916723,1087.0,75.8,0.539,169
4133606,33069404723,488.0,75.8,0.573,185
4133703,33070180723,776.0,75.8,0.587,185
4133801,33070964726,784.0,75.8,0.826,169
4133902,33071772723,807.0,75.8,0.824,169
4134002,33072572724,800.0,75.8,0.834,169
4134105,33073396726,824.0,75.8,0.842,169
4134206,33074204724,807.0,75.8,0.844,169
4134303,33074980724,776.0,75.8,0.841,169
4134402,33075772723,791.0,75.8,0.861,169
4134504,33076588726,816.0,75.8,0.853,169
4134601,33077364726,776.0,75.8,0.853,169
4134700,33078156725,791.0,75.8,0.867,169
4134802,33078972723,815.0,75.8,0.856,169
4134900,33079756723,784.0,75.8,0.838,169
4134999,33080548726,792.0,75.8,0.848,169
4135102,33081372723,823.0,75.8,0.849,169
4135204,33082188726,816.0,75.8,0.817,169
4135305,33082996724,807.0,75.8,0.819,169
4135409,33083828723,831.0,75.8,0.772,169
4135510,33084636723,808.0,75.8,0.78,169
4135608,33085420723,784.0,75.8,0.799,169
4135710,33086236723,816.0,75.8,0.791,169
4135815,33087076723,840.0,75.8,0.769,169
4135916,33087884724,808.0,75.8,0.762,169
4136022,33088732724,848.0,75.8,0.767,185
4136060,33089036723,303.0,75.8,0.542,169
4136167,33089892723,856.0,75.8,0.49,185
4136227,33090372725,480.0,75.8,0.799,169
4136328,33091180724,807.0,75.8,0.821,169
4136431,33092004723,823.0,75.8,0.826,169
4136531,33092804723,800.0,75.8,0.835,169
4136635,33093636723,832.0,75.8,0.864,169
4136743,33094500723,864.0,75.8,0.855,169
4136849,33095348726,848.0,75.8,0.837,169
4136954,33096188723,839.0,75.8,0.84,169
4137063,33097060726,872.0,75.8,0.783,169
4137166,33097884723,823.0,75.8,0.779,169
4137267,33098692723,808.0,75.8,0.782,169
4137309,33099028723,336.0,75.8,0.496,185
4137410,33099836726,808.0,75.8,0.503,169
4137520,33100716726,880.0,75.8,0.465,185
4137617,33101492723,775.0,75.8,0.476,185
4137727,33102372723,880.0,75.8,0.459,185
4137782,33102812723,440.0,75.8,0.845,169
4137887,33103652726,840.0,75.8,0.855,169
4137989,33104468726,816.0,75.8,0.839,169
4138086,33105244724,775.0,75.8,0.826,169
4138178,33105980727,736.0,75.8,0.833,169
4138266,33106684723,703.0,75.8,0.803,169
4138403,33107780723,1096.0,75.8,0.453,185
4138484,33108428724,648.0,75.8,0.513,169
4138621,33109524726,1096.0,75.8,0.801,169
4138711,33110244723,719.0,75.8,0.808,169
4138801,33110964724,720.0,75.8,0.817,169
4138891,33111684726,720.0,75.8,0.838,169
4138984,33112428723,743.0,75.8,0.853,169
4139078,33113180723,752.0,75.8,0.857,169
4139172,33113932723,752.0,75.8,0.855,169
4139264,33114668724,736.0,75.8,0.862,169
4139355,33115396723,727.0,75.8,0.862,169
4139443,33116100723,704.0,75.8,0.855,169
4139530,33116796723,696.0,75.8,0.837,169
4139711,33118244723,1448.0,75.8,0.332,185
4139902,33119772726,1528.0,75.8,0.736,185
4139936,33120044724,271.0,75.8,0.551,173
4140093,33121300728,1256.0,75.8,0.774,185
4140128,33121580724,279.0,75.8,0.554,173
4140225,33122356723,775.0,75.8,0.552,169
4140380,33123596723,1240.0,75.8,0.766,185
4140481,33124404723,808.0,75.8,0.767,185
4140517,33124692723,288.0,75.8,0.545,173
4140587,33125252723,560.0,75.8,0.538,185
4140688,33126060726,808.0,75.8,0.802,169
4140790,33126876723,815.0,75.8,0.837,169
4140894,33127708726,832.0,75.8,0.841,169
4140994,33128508723,799.0,75.8,0.827,169
4141097,33129332726,824.0,75.8,0.852,169
4141201,33130164723,831.0,75.8,0.856,169
4141302,33130972723,808.0,75.8,0.835,169
4141403,33131780723,808.0,75.8,0.856,169
4141505,33132596730,816.0,75.8,0.856,169
4141608,33133420723,823.0,75.8,0.815,169
4141706,33134204726,784.0,75.8,0.812,169
4141806,33135004723,799.0,75.8,0.819,169
4141906,33135804723,800.0,75.8,0.807,169
4142005,33136596723,792.0,75.8,0.802,169
4142105,33137396723,800.0,75.8,0.79,169
4142205,33138196726,800.0,75.8,0.791,169
4142306,33139004723,807.0,75.8,0.78,169
4142342,33139292723,288.0,75.8,0.512,173
4142446,33140124723,832.0,75.8,0.548,169
4142621,33141524723,1400.0,75.8,0.327,185
4142730,33142396724,872.0,75.8,0.83,169
4142837,33143252724,856.0,75.8,0.832,169
4142943,33144100723,847.0,75.8,0.859,169
4143050,33144956726,856.0,75.8,0.865,169
4143157,33145812726,856.0,75.8,0.833,169
4143261,33146644723,831.0,75.8,0.812,169
4143365,33147476723,832.0,75.8,0.794,169
4143471,33148324726,848.0,75.8,0.781,169
4143578,33149180724,855.0,75.8,0.777,169
4143615,33149476724,296.0,75.8,0.544,173
4143691,33150084726,608.0,75.8,0.517,185
4143829,33151188724,1103.0,75.8,0.519,169
4143893,33151700723,511.0,75.8,0.826,169
4143998,33152540724,840.0,75.8,0.841,169
4144100,33153356723,815.0,75.8,0.841,169
4144200,33154156724,800.0,75.8,0.836,169
4144301,33154964724,808.0,75.8,0.858,169
4144403,33155780723,815.0,75.8,0.856,169
4144502,33156572725,792.0,75.8,0.847,169
4144603,33157380723,807.0,75.8,0.856,169
4144706,33158204723,824.0,75.8,0.833,169
4144806,33159004723,800.0,75.8,0.82,169
4144908,33159820724,816.0,75.8,0.82,169
4145011,33160644723,823.0,75.8,0.801,169
4145112,33161452723,808.0,75.8,0.772,169
4145215,33162276723,824.0,75.8,0.794,169
4145253,33162580723,304.0,75.8,0.524,169
4145419,33163908724,1328.0,75.8,0.756,169
4145519,33164708723,799.0,75.8,0.762,169
4145557,33165012727,304.0,75.8,0.536,169
4145660,33165836723,823.0,75.8,0.507,169
4145758,33166620723,784.0,75.8,0.496,185
4145855,33167396725,776.0,75.8,0.524,169
4145956,33168204723,807.0,75.8,0.508,169
4146046,33168924724,720.0,75.8,0.553,169
4146200,33170156723,1231.0,75.8,0.728,185
4146291,33170884723,728.0,75.8,0.788,169
4146327,33171172723,288.0,75.8,0.539,173
4146469,33172308724,1136.0,75.8,0.817,169
4146556,33173004723,695.0,75.8,0.826,169
4146642,33173692723,688.0,75.8,0.872,169
4146727,33174372726,680.0,75.8,0.878,169
4146814,33175068723,695.0,75.8,0.865,169
4146909,33175828723,760.0,75.8,0.864,169
4147010,33176636723,808.0,75.8,0.848,169
4147113,33177460726,824.0,75.8,0.871,169
4147219,33178308723,847.0,75.8,0.853,169
4147320,33179116723,808.0,75.8,0.842,169
4147422,33179932723,816.0,75.8,0.846,169
4147522,33180732724,800.0,75.8,0.825,169
4147618,33181500723,767.0,75.8,0.819,169
4147713,33182260723,760.0,75.8,0.835,169
4147809,33183028725,768.0,75.8,0.846,169
4147907,33183812724,783.0,75.8,0.835,169
4148001,33184564726,752.0,75.8,0.855,169
4148096,33185324727,760.0,75.8,0.858,169
4148195,33186116725,791.0,75.8,0.865,169
4148305,33186996727,880.0,75.8,0.824,169
4148418,33187900723,903.0,75.8,0.779,169
4148460,33188236726,336.0,75.8,0.477,185
4148628,33189580728,1344.0,75.8,0.787,185
4148664,33189868723,287.0,75.8,0.563,173
4148735,33190436723,568.0,75.8,0.553,185
4148840,33191276723,840.0,75.8,0.822,169
4148941,33192084723,808.0,75.8,0.819,169
4149042,33192892728,808.0,75.8,0.847,169
4149144,33193708723,815.0,75.8,0.852,169
4149243,33194500726,792.0,75.8,0.844,169
4149343,33195300723,799.0,75.8,0.856,169
4149444,33196108723,808.0,75.8,0.865,169
4149547,33196932726,824.0,75.8,0.849,169
4149648,33197740726,808.0,75.8,0.832,169
4149751,33198564724,823.0,75.8,0.853,169
4149857,33199412723,847.0,75.8,0.808,169
4149957,33200212723,800.0,75.8,0.791,169
4150061,33201044723,832.0,75.8,0.791,169
4150097,33201332724,288.0,75.8,0.513,173
4150266,33202684724,1352.0,75.8,0.755,169
4150310,33203036723,351.0,75.8,0.489,185
4150471,33204324726,1288.0,75.8,0.763,185
4150575,33205156727,832.0,75.8,0.303,185
4150675,33205956724,799.0,75.8,0.532,185
4150813,33207060723,1103.0,75.8,0.541,169
4150877,33207572723,512.0,75.8,0.822,169
4150976,33208364726,792.0,75.8,0.819,169
4151075,33209156723,791.0,75.8,0.834,169
4151172,33209932724,776.0,75.8,0.83,169
4151268,33210700723,767.0,75.8,0.816,169
4151368,33211500724,800.0,75.8,0.845,169
4151478,33212380723,879.0,75.8,0.863,169
4151591,33213284727,904.0,75.8,0.854,169
4151697,33214132726,847.0,75.8,0.819,169
4151804,33214988723,855.0,75.8,0.818,169
4151908,33215820723,832.0,75.8,0.791,169
4152006,33216604723,784.0,75.8,0.773,169
4152105,33217396724,792.0,75.8,0.783,169
4152143,33217700724,304.0,75.8,0.523,169
4152302,33218972724,1272.0,75.8,0.767,169
4152341,33219284726,312.0,75.8,0.506,169
4152437,33220052725,767.0,75.8,0.531,169
4152610,33221436723,1383.0,75.8,0.767,185
4152647,33221732723,296.0,75.8,0.554,173
4152746,33222524723,792.0,75.8,0.567,169
4152813,33223060723,536.0,75.8,0.817,169
4152915,33223876726,816.0,75.8,0.817,169
4153012,33224652723,775.0,75.8,0.808,169
4153114,33225468726,816.0,75.8,0.853,169
4153219,33226308723,839.0,75.8,0.866,169
4153320,33227116723,808.0,75.8,0.846,169
4153427,33227972723,856.0,75.8,0.864,169
4153537,33228852723,880.0,75.8,0.834,169
4153642,33229692723,840.0,75.8,0.806,169
4153750,33230556723,864.0,75.8,0.804,169
4153787,33230852725,296.0,75.8,0.517,173
4153907,33231812726,960.0,75.8,0.478,185
4154013,33232660723,847.0,75.8,0.469,185
4154072,33233132726,472.0,75.8,0.587,185
4154178,33233980723,847.0,75.8,0.833,169
4154279,33234788723,808.0,75.8,0.84,169
4154382,33235612723,824.0,75.8,0.852,169
4154482,33236412724,800.0,75.8,0.845,169
4154577,33237172726,760.0,75.8,0.857,169
4154676,33237964724,791.0,75.8,0.866,169
4154776,33238764726,800.0,75.8,0.87,169
4154876,33239564726,800.0,75.8,0.844,169
4154979,33240388724,823.0,75.8,0.861,169
4155084,33241228724,840.0,75.8,0.834,169
4155184,33242028723,799.0,75.8,0.817,169
4155284,33242828724,800.0,75.8,0.828,169
4155385,33243636726,808.0,75.8,0.819,169
4155484,33244428723,791.0,75.8,0.802,169
4155583,33245220723,792.0,75.8,0.808,169
4155684,33246028725,808.0,75.8,0.799,169
4155787,33246852723,823.0,75.8,0.776,169
4155888,33247660724,808.0,75.8,0.767,169
4155989,33248468723,807.0,75.8,0.775,169
4156094,33249308723,840.0,75.8,0.753,185
4156134,33249628725,320.0,75.8,0.517,169
4156295,33250916723,1287.0,75.8,0.762,185
4156333,33251220723,304.0,75.8,0.542,169
4156439,33252068723,848.0,75.8,0.457,185
4156545,33252916724,848.0,75.8,0.451,185
4156629,33253588723,671.0,75.8,0.524,169
4156690,33254076724,488.0,75.8,0.553,185
4156788,33254860724,784.0,75.8,0.571,185
4156888,33255660723,799.0,75.8,0.828,169
4156994,33256508723,848.0,75.8,0.835,169
4157101,33257364722,855.0,75.8,0.842,169
4157208,33258220723,856.0,75.8,0.856,169
4157313,33259060724,840.0,75.8,0.854,169
4157412,33259852726,792.0,75.8,0.822,169
4157510,33260636723,783.0,75.8,0.847,169
4157610,33261436723,800.0,75.8,0.834,169
4157706,33262204723,768.0,75.8,0.82,169
4157803,33262980723,776.0,75.8,0.827,169
4157899,33263748723,768.0,75.8,0.828,169
4157993,33264500723,752.0,75.8,0.852,169
4158091,33265284723,784.0,75.8,0.848,169
4158187,33266052723,768.0,75.8,0.842,169
4158287,33266852723,800.0,75.8,0.84,169
4158389,33267668723,816.0,75.8,0.825,169
4158488,33268460724,792.0,75.8,0.793,169
4158584,33269228727,768.0,75.8,0.828,169
4158685,33270036723,807.0,75.8,0.815,169
4158782,33270812724,776.0,75.8,0.808,169
4158882,33271612723,799.0,75.8,0.814,169
4158983,33272420723,808.0,75.8,0.805,169
4159082,33273212723,792.0,75.8,0.777,169
4159179,33273988723,776.0,75.8,0.782,169
4159278,33274780723,792.0,75.8,0.79,169
4159314,33275068724,288.0,75.8,0.51,173
4159414,33275868724,800.0,75.8,0.532,169
4159576,33277164723,1295.0,75.8,0.775,169
4159612,33277452723,288.0,75.8,0.524,173
4159714,33278268723,816.0,75.8,0.524,169
4159813,33279060723,792.0,75.8,0.533,169
4159911,33279844724,784.0,75.8,0.537,169
4160012,33280652727,808.0,75.8,0.559,169
4160114,33281468723,815.0,75.8,0.556,169
4160220,33282316726,848.0,75.8,0.523,169
4160282,33282812726,496.0,75.8,0.793,169
4160381,33283604723,791.0,75.8,0.819,169
4160481,33284404727,800.0,75.8,0.823,169
4160580,33285196723,791.0,75.8,0.817,169
4160679,33285988724,792.0,75.8,0.83,169
4160779,33286788723,799.0,75.8,0.836,169
4160878,33287580726,792.0,75.8,0.831,169
4160976,33288364723,783.0,75.8,0.849,169
4161077,33289172723,808.0,75.8,0.86,169
4161178,33289980724,808.0,75.8,0.848,169
4161276,33290764726,784.0,75.8,0.853,169
4161378,33291580728,816.0,75.8,0.87,169
4161482,33292412723,831.0,75.8,0.843,169
4161580,33293196723,784.0,75.8,0.837,169
4161680,33293996724,800.0,75.8,0.84,169
4161782,33294812723,815.0,75.8,0.83,169
4161883,33295620726,808.0,75.8,0.811,169
4161987,33296452723,831.0,75.8,0.803,169
4162092,33297292724,840.0,75.8,0.787,169
4162192,33298092723,799.0,75.8,0.769,169
4162229,33298388723,296.0,75.8,0.514,173
4162329,33299188723,800.0,75.8,0.533,169
4162492,33300492726,1304.0,75.8,0.763,169
4162530,33300796724,303.0,75.8,0.524,169
4162697,33302132727,1336.0,75.8,0.751,185
4162734,33302428723,295.0,75.8,0.539,173
4162833,33303220724,792.0,75.8,0.537,169
4162897,33303732724,512.0,75.8,0.561,185
4162998,33304540723,807.0,75.8,0.801,169
4163098,33305340727,800.0,75.8,0.804,169
4163199,33306148723,807.0,75.8,0.826,169
4163296,33306924723,776.0,75.8,0.805,169
4163394,33307708725,784.0,75.8,0.828,169
4163494,33308508723,799.0,75.8,0.847,169
4163597,33309332723,824.0,75.8,0.838,169
4163697,33310132723,800.0,75.8,0.85,169
4163799,33310948723,816.0,75.8,0.862,169
4163897,33311732725,784.0,75.8,0.84,169
4163989,33312468728,736.0,75.8,0.853,169
4164079,33313188724,719.0,75.8,0.844,169
4164166,33313884726,696.0,75.8,0.823,169
4164341,33315284728,1400.0,75.8,0.777,185
4164431,33316004724,719.0,75.8,0.788,169
4164466,33316284723,279.0,75.8,0.546,173
4164563,33317060723,776.0,75.8,0.538,169
4164658,33317820723,760.0,75.8,0.529,169
4164758,33318620724,800.0,75.8,0.534,169
4164931,33320004723,1383.0,75.8,0.309,185
4165039,33320868726,864.0,75.8,0.813,169
4165143,33321700723,831.0,75.8,0.851,169
4165248,33322540726,840.0,75.8,0.856,169
4165353,33323380723,839.0,75.8,0.864,169
4165462,33324252723,872.0,75.8,0.86,169
4165568,33325100723,848.0,75.8,0.815,169
4165668,33325900726,800.0,75.8,0.817,169
4165770,33326716724,815.0,75.8,0.807,169
4165873,33327540723,823.0,75.8,0.795,169
4165909,33327828723,288.0,75.8,0.508,173
4166074,33329148725,1320.0,75.8,0.775,169
4166109,33329428723,279.0,75.8,0.53,173
4166211,33330244725,816.0,75.8,0.539,169
4166313,33331060724,815.0,75.8,0.524,169
4166409,33331828727,768.0,75.8,0.547,169
4166580,33333196723,1367.0,75.8,0.31,185
4166717,33334292723,1096.0,75.8,0.542,169
4166787,33334852723,560.0,75.8,0.831,169
4166895,33335716723,864.0,75.8,0.856,169
4167002,33336572723,856.0,75.8,0.86,169
4167114,33337468723,896.0,75.8,0.859,169
4167224,33338348724,880.0,75.8,0.821,169
4167329,33339188728,840.0,75.8,0.801,169
4167364,33339468723,279.0,75.8,0.517,173
4167471,33340324723,856.0,75.8,0.548,169
4167580,33341196724,872.0,75.8,0.555,169
4167650,33341756723,559.0,75.8,0.543,185
4167755,33342596727,840.0,75.8,0.855,169
4167864,33343468723,871.0,75.8,0.859,169
4167968,33344300726,832.0,75.8,0.861,169
4168075,33345156723,855.0,75.8,0.876,169
4168181,33346004723,848.0,75.8,0.842,169
4168279,33346788726,784.0,75.8,0.834,169
4168378,33347580723,791.0,75.8,0.827,169
4168477,33348372723,792.0,75.8,0.823,169
4168571,33349124724,752.0,75.8,0.826,169
4168664,33349868727,744.0,75.8,0.855,169
4168758,33350620728,752.0,75.8,0.872,169
4168848,33351340723,719.0,75.8,0.863,169
4168941,33352084723,744.0,75.8,0.876,169
4169038,33352860723,776.0,75.8,0.885,169
4169337,33355252722,0.0,0.0,0.801,75
4169440,33356076723,824.0,72.8,0.878,73
4169547,33356932724,856.0,71.4,0.871,73
4169650,33357756723,823.0,72.8,0.857,73
4169757,33358612723,856.0,71.4,0.87,73
4170081,33361204723,0.0,0.0,0.806,75
4170183,33362020723,816.0,73.5,0.878,73
4170281,33362804726,784.0,75.0,0.841,73
4170379,33363588723,783.0,76.5,0.867,73
4170477,33364372723,784.0,76.5,0.868,73
4170575,33365156723,784.0,76.5,0.853,73
4170671,33365924723,768.0,76.5,0.854,73
4170768,33366700723,776.0,76.5,0.877,73
4171071,33369124728,0.0,0.0,0.798,75
4171176,33369964723,839.0,71.4,0.882,73
4171284,33370828723,864.0,70.4,0.857,73
4171390,33371676726,848.0,70.8,0.874,73
4171498,33372540723,863.0,70.1,0.872,73
4171605,33373396723,856.0,70.1,0.861,73
4171709,33374228723,832.0,70.4,0.885,73
4171814,33375068726,840.0,70.8,0.884,73
4171917,33375892723,823.0,71.1,0.842,73
4172016,33376684723,792.0,71.4,0.86,73
4172118,33377500723,816.0,71.4,0.858,73
