seq,t_us,raw,avg,filtered,peak,detector_score,expected_rr_ms,hr_bpm,flags
4012031,32096804723,80.0,91.0,-142.0,0,0.474,872.0,69.4,1
4012032,32096812725,75.0,87.0,-144.0,0,0.476,872.0,69.4,1
4012033,32096820727,72.0,84.0,-147.0,0,0.486,872.0,69.4,1
4012034,32096828723,68.0,80.0,-149.0,0,0.481,872.0,69.4,1
4012035,32096836723,64.0,76.0,-152.0,0,0.491,872.0,69.4,1
4012036,32096844723,55.0,71.0,-155.0,0,0.494,872.0,69.4,1
4012037,32096852723,53.0,67.0,-158.0,0,0.497,872.0,69.4,1
4012038,32096860726,48.0,62.0,-161.0,0,0.5,872.0,69.4,1
4012039,32096868723,44.0,58.0,-164.0,0,0.502,872.0,69.4,1
4012040,32096876723,37.0,53.0,-168.0,0,0.513,872.0,69.4,1
4012041,32096884726,37.0,49.0,-171.0,0,0.509,872.0,69.4,1
4012042,32096892723,36.0,46.0,-174.0,0,0.512,872.0,69.4,1
4012043,32096900722,31.0,42.0,-176.0,0,0.507,872.0,69.4,1
4012044,32096908724,35.0,40.0,-179.0,0,0.516,872.0,69.4,1
4012045,32096916723,27.0,37.0,-181.0,0,0.511,872.0,69.4,1
4012046,32096924727,30.0,35.0,-182.0,0,0.505,872.0,69.4,1
4012047,32096932726,30.0,34.0,-183.0,0,0.506,872.0,69.4,1
4012048,32096940723,31.0,33.0,-184.0,0,0.507,872.0,69.4,1
4012049,32096948723,32.0,33.0,-184.0,1,0.5,872.0,69.4,1
4012050,32096956723,33.0,33.0,-184.0,0,0.5,872.0,69.4,1
4012051,32096964723,35.0,34.0,-183.0,0,0.505,872.0,69.4,1
4012052,32096972724,36.0,34.0,-183.0,1,0.498,872.0,69.4,1
4012053,32096980727,39.0,35.0,-181.0,0,0.508,872.0,69.4,1
4012054,32096988726,44.0,37.0,-179.0,0,0.506,872.0,69.4,1
4012055,32096996724,41.0,38.0,-177.0,0,0.503,872.0,69.4,1
4012056,32097004726,48.0,41.0,-175.0,0,0.501,872.0,69.4,1
4012057,32097012723,55.0,44.0,-172.0,0,0.504,872.0,69.4,1
4012058,32097020723,57.0,47.0,-169.0,0,0.501,872.0,69.4,1
4012059,32097028726,66.0,52.0,-165.0,0,0.503,872.0,69.4,1
4012060,32097036722,68.0,56.0,-160.0,0,0.504,872.0,69.4,1
4012061,32097044723,77.0,61.0,-156.0,0,0.493,872.0,69.4,1
4012062,32097052723,79.0,65.0,-151.0,0,0.495,872.0,69.4,1
4012063,32097060723,83.0,70.0,-146.0,0,0.489,872.0,69.4,1
4012064,32097068729,96.0,76.0,-140.0,0,0.49,872.0,69.4,1
4012065,32097076723,99.0,82.0,-134.0,0,0.483,872.0,69.4,1
4012066,32097084726,103.0,87.0,-128.0,0,0.477,872.0,69.4,1
4012067,32097092726,108.0,92.0,-122.0,0,0.471,872.0,69.4,1
4012068,32097100723,114.0,97.0,-116.0,0,0.464,872.0,69.4,1
4012069,32097108723,116.0,102.0,-111.0,0,0.452,872.0,69.4,1
4012070,32097116723,122.0,107.0,-105.0,0,0.453,872.0,69.4,1
4012071,32097124723,127.0,112.0,-99.0,0,0.446,872.0,69.4,1
4012072,32097132723,132.0,117.0,-94.0,0,0.434,872.0,69.4,1
4012073,32097140724,136.0,121.0,-88.0,0,0.435,872.0,69.4,1
4012074,32097148723,143.0,127.0,-83.0,0,0.423,872.0,69.4,1
4012075,32097156723,146.0,131.0,-77.0,0,0.423,872.0,69.4,1
4012076,32097164723,159.0,138.0,-72.0,0,0.411,872.0,69.4,1
4012077,32097172724,174.0,147.0,-65.0,0,0.418,872.0,69.4,1
4012078,32097180724,198.0,159.0,-56.0,0,0.424,872.0,69.4,1
4012079,32097188723,226.0,175.0,-46.0,0,0.422,872.0,69.4,1
4012080,32097196724,264.0,197.0,-32.0,0,0.438,872.0,69.4,1
4012081,32097204725,303.0,223.0,-15.0,0,0.444,872.0,69.4,1
4012082,32097212723,348.0,253.0,6.0,0,0.472,872.0,69.4,1
4012083,32097220723,395.0,287.0,31.0,0,0.519,872.0,69.4,1
4012084,32097228723,445.0,326.0,59.0,0,0.563,872.0,69.4,1
4012085,32097236723,492.0,366.0,90.0,0,0.609,872.0,69.4,1
4012086,32097244723,538.0,408.0,124.0,0,0.658,872.0,69.4,1
4012087,32097252723,576.0,448.0,160.0,0,0.703,872.0,69.4,1
4012088,32097260724,615.0,489.0,196.0,0,0.74,872.0,69.4,1
4012089,32097268723,647.0,527.0,232.0,0,0.775,872.0,69.4,1
4012090,32097276724,665.0,561.0,267.0,0,0.801,872.0,69.4,1
4012091,32097284723,676.0,589.0,299.0,0,0.814,872.0,69.4,1
4012092,32097292727,687.0,612.0,328.0,0,0.82,872.0,69.4,1
4012093,32097300723,687.0,631.0,353.0,0,0.814,872.0,69.4,1
4012094,32097308723,680.0,643.0,374.0,0,0.801,872.0,69.4,1
4012095,32097316723,664.0,648.0,389.0,0,0.768,872.0,69.4,1
4012096,32097324723,646.0,647.0,399.0,0,0.737,872.0,69.4,1
4012097,32097332724,631.0,643.0,404.0,0,0.703,872.0,69.4,1
4012098,32097340723,602.0,633.0,404.0,1,0.669,872.0,69.4,1
4012099,32097348723,574.0,619.0,400.0,0,0.693,872.0,69.4,1
4012100,32097356723,545.0,601.0,390.0,0,0.731,873.6,69.4,1
4012101,32097364723,515.0,580.0,377.0,0,0.747,873.6,69.4,1
4012102,32097372727,479.0,556.0,360.0,0,0.766,873.6,69.4,1
4012103,32097380724,444.0,529.0,340.0,0,0.775,873.6,69.4,1
4012104,32097388728,412.0,500.0,316.0,0,0.783,873.6,69.4,1
4012105,32097396727,379.0,471.0,291.0,0,0.771,873.6,69.4,1
4012106,32097404726,343.0,440.0,264.0,0,0.759,873.6,69.4,1
4012107,32097412724,308.0,408.0,235.0,0,0.743,873.6,69.4,1
4012108,32097420724,276.0,376.0,205.0,0,0.719,873.6,69.4,1
4012109,32097428723,244.0,344.0,174.0,0,0.692,873.6,69.4,1
4012110,32097436726,214.0,312.0,143.0,0,0.659,873.6,69.4,1
4012111,32097444723,184.0,281.0,111.0,0,0.629,873.6,69.4,1
4012112,32097452724,162.0,252.0,81.0,0,0.589,873.6,69.4,1
4012113,32097460724,137.0,224.0,51.0,0,0.558,873.6,69.4,1
4012114,32097468723,122.0,200.0,23.0,0,0.521,873.6,69.4,1
4012115,32097476723,104.0,176.0,-4.0,0,0.495,873.6,69.4,1
4012116,32097484723,93.0,156.0,-29.0,0,0.507,873.6,69.4,1
4012117,32097492723,84.0,139.0,-51.0,0,0.511,873.6,69.4,1
4012118,32097500723,77.0,124.0,-71.0,0,0.518,873.6,69.4,1
4012119,32097508726,76.0,112.0,-88.0,0,0.516,873.6,69.4,1
4012120,32097516723,71.0,102.0,-103.0,0,0.517,873.6,69.4,1
4012121,32097524723,75.0,96.0,-116.0,0,0.517,873.6,69.4,1
4012122,32097532723,72.0,90.0,-126.0,0,0.506,873.6,69.4,1
4012123,32097540723,74.0,86.0,-134.0,0,0.5,873.6,69.4,1
4012124,32097548723,83.0,85.0,-140.0,0,0.492,873.6,69.4,1
4012125,32097556723,85.0,85.0,-143.0,0,0.474,873.6,69.4,1
4012126,32097564723,84.0,85.0,-146.0,0,0.477,873.6,69.4,1
4012127,32097572725,92.0,87.0,-147.0,0,0.465,873.6,69.4,1
4012128,32097580723,90.0,87.0,-147.0,1,0.459,873.6,69.4,1
4012129,32097588723,97.0,90.0,-146.0,0,0.465,873.6,69.4,1
4012130,32097596726,98.0,92.0,-145.0,0,0.464,873.6,69.4,1
4012131,32097604727,97.0,93.0,-143.0,0,0.468,873.6,69.4,1
4012132,32097612723,97.0,94.0,-141.0,0,0.466,873.6,69.4,1
4012133,32097620723,96.0,94.0,-140.0,0,0.459,873.6,69.4,1
4012134,32097628723,96.0,95.0,-138.0,0,0.464,873.6,69.4,1
4012135,32097636724,94.0,95.0,-137.0,0,0.456,873.6,69.4,1
4012136,32097644723,93.0,94.0,-136.0,0,0.455,873.6,69.4,1
4012137,32097652723,91.0,93.0,-135.0,0,0.454,873.6,69.4,1
4012138,32097660726,86.0,92.0,-135.0,1,0.448,873.6,69.4,1
4012139,32097668723,89.0,91.0,-135.0,0,0.448,862.4,69.4,1
4012140,32097676723,79.0,88.0,-135.0,0,0.449,862.4,69.4,1
4012141,32097684725,79.0,86.0,-136.0,0,0.456,862.4,69.4,1
4012142,32097692724,80.0,84.0,-136.0,1,0.45,862.4,69.4,1
4012143,32097700726,76.0,82.0,-137.0,0,0.458,862.4,69.4,1
4012144,32097708723,74.0,80.0,-138.0,0,0.459,862.4,69.4,1
4012145,32097716723,72.0,78.0,-139.0,0,0.46,862.4,69.4,1
4012146,32097724725,70.0,76.0,-140.0,0,0.461,862.4,69.4,1
4012147,32097732723,72.0,75.0,-140.0,1,0.455,862.4,69.4,1
4012148,32097740724,68.0,74.0,-141.0,0,0.462,862.4,69.4,1
4012149,32097748723,70.0,73.0,-142.0,0,0.463,862.4,69.4,1
4012150,32097756723,68.0,72.0,-142.0,1,0.457,862.4,69.4,1
4012151,32097764723,68.0,71.0,-142.0,0,0.457,862.4,69.4,1
4012152,32097772723,64.0,69.0,-143.0,0,0.465,862.4,69.4,1
4012153,32097780723,68.0,69.0,-143.0,1,0.458,862.4,69.4,1
4012154,32097788728,69.0,69.0,-143.0,0,0.458,862.4,69.4,1
4012155,32097796723,76.0,71.0,-142.0,0,0.463,862.4,69.4,1
4012156,32097804724,73.0,71.0,-141.0,0,0.462,862.4,69.4,1
4012157,32097812727,78.0,73.0,-139.0,0,0.467,862.4,69.4,1
4012158,32097820726,78.0,74.0,-137.0,0,0.465,862.4,69.4,1
4012159,32097828726,84.0,76.0,-135.0,0,0.462,862.4,69.4,1
4012160,32097836723,86.0,79.0,-133.0,0,0.46,862.4,69.4,1
4012161,32097844725,91.0,82.0,-130.0,0,0.464,862.4,69.4,1
4012162,32097852723,92.0,84.0,-127.0,0,0.46,862.4,69.4,1
4012163,32097860723,94.0,87.0,-124.0,0,0.457,862.4,69.4,1
4012164,32097868723,100.0,90.0,-121.0,0,0.454,862.4,69.4,1
4012165,32097876724,105.0,94.0,-117.0,0,0.456,862.4,69.4,1
4012166,32097884724,112.0,98.0,-113.0,0,0.452,862.4,69.4,1
4012167,32097892723,116.0,102.0,-109.0,0,0.448,862.4,69.4,1
4012168,32097900724,122.0,107.0,-104.0,0,0.449,862.4,69.4,1
4012169,32097908723,127.0,112.0,-99.0,0,0.444,862.4,69.4,1
4012170,32097916723,134.0,117.0,-94.0,0,0.439,862.4,69.4,1
4012171,32097924725,136.0,122.0,-89.0,0,0.433,862.4,69.4,1
4012172,32097932723,139.0,126.0,-84.0,0,0.428,862.4,69.4,1
4012173,32097940724,145.0,131.0,-79.0,0,0.423,862.4,69.4,1
4012174,32097948724,148.0,135.0,-74.0,0,0.418,862.4,69.4,1
4012175,32097956723,151.0,139.0,-69.0,0,0.412,862.4,69.4,1
4012176,32097964723,152.0,142.0,-65.0,0,0.401,862.4,69.4,1
4012177,32097972723,159.0,146.0,-61.0,0,0.397,862.4,69.4,1
4012178,32097980723,162.0,150.0,-56.0,0,0.399,862.4,69.4,1
4012179,32097988723,164.0,153.0,-52.0,0,0.388,862.4,69.4,1
4012180,32097996726,171.0,158.0,-48.0,0,0.384,862.4,69.4,1
4012181,32098004728,173.0,161.0,-44.0,0,0.38,862.4,69.4,1
4012182,32098012723,181.0,166.0,-39.0,0,0.382,862.4,69.4,1
4012183,32098020723,189.0,172.0,-35.0,0,0.371,862.4,69.4,1
4012184,32098028723,200.0,179.0,-29.0,0,0.379,862.4,69.4,1
4012185,32098036723,223.0,189.0,-22.0,0,0.38,862.4,69.4,1
4012186,32098044723,250.0,204.0,-13.0,0,0.386,862.4,69.4,1
4012187,32098052724,286.0,224.0,-1.0,0,0.398,862.4,69.4,1
4012188,32098060726,325.0,248.0,15.0,0,0.443,862.4,69.4,1
4012189,32098068723,374.0,279.0,34.0,0,0.483,862.4,69.4,1
4012190,32098076723,420.0,313.0,58.0,0,0.54,862.4,69.4,1
4012191,32098084723,472.0,352.0,86.0,0,0.591,862.4,69.4,1
4012192,32098092722,520.0,392.0,117.0,0,0.639,862.4,69.4,1
4012193,32098100723,570.0,435.0,151.0,0,0.688,862.4,69.4,1
4012194,32098108723,612.0,478.0,187.0,0,0.733,862.4,69.4,1
4012195,32098116724,652.0,520.0,224.0,0,0.773,862.4,69.4,1
4012196,32098124723,683.0,560.0,261.0,0,0.806,862.4,69.4,1
4012197,32098132723,713.0,597.0,297.0,0,0.831,862.4,69.4,1
4012198,32098140727,730.0,629.0,332.0,0,0.851,862.4,69.4,1
4012199,32098148723,746.0,658.0,363.0,0,0.852,862.4,69.4,1
4012200,32098156723,748.0,679.0,391.0,0,0.852,862.4,69.4,1
4012201,32098164723,752.0,697.0,416.0,0,0.846,862.4,69.4,1
4012202,32098172723,740.0,707.0,435.0,0,0.816,862.4,69.4,1
4012203,32098180723,725.0,712.0,449.0,0,0.786,862.4,69.4,1
4012204,32098188723,702.0,709.0,458.0,0,0.752,862.4,69.4,1
4012205,32098196723,679.0,702.0,461.0,0,0.71,862.4,69.4,1
4012206,32098204723,655.0,691.0,459.0,1,0.702,862.4,69.4,1
4012207,32098212723,620.0,673.0,452.0,0,0.735,862.4,69.4,1
4012208,32098220723,588.0,653.0,440.0,0,0.767,862.4,69.4,1
4012209,32098228727,556.0,629.0,424.0,0,0.79,862.4,69.4,1
4012210,32098236723,516.0,602.0,404.0,0,0.809,862.4,69.4,1
4012211,32098244723,482.0,573.0,381.0,0,0.817,862.4,69.4,1
4012212,32098252725,447.0,542.0,355.0,0,0.819,862.4,69.4,1
4012213,32098260723,407.0,509.0,327.0,0,0.812,862.4,69.4,1
4012214,32098268726,374.0,477.0,297.0,0,0.8,862.4,69.4,1
4012215,32098276725,335.0,442.0,266.0,0,0.779,862.4,69.4,1
4012216,32098284722,303.0,409.0,233.0,0,0.758,862.4,69.4,1
4012217,32098292723,271.0,375.0,200.0,0,0.725,859.2,69.4,1
4012218,32098300723,231.0,340.0,166.0,0,0.694,859.2,69.4,1
4012219,32098308725,204.0,307.0,133.0,0,0.655,859.2,69.4,1
4012220,32098316723,180.0,276.0,100.0,0,0.619,859.2,69.4,1
4012221,32098324723,155.0,247.0,68.0,0,0.582,859.2,69.4,1
4012222,32098332727,135.0,220.0,38.0,0,0.543,859.2,69.4,1
4012223,32098340725,116.0,195.0,9.0,0,0.51,859.2,69.4,1
4012224,32098348726,100.0,172.0,-18.0,0,0.512,859.2,69.4,1
4012225,32098356725,88.0,151.0,-43.0,0,0.525,859.2,69.4,1
4012226,32098364723,78.0,134.0,-66.0,0,0.537,859.2,69.4,1
4012227,32098372724,69.0,118.0,-86.0,0,0.539,859.2,69.4,1
4012228,32098380724,68.0,106.0,-104.0,0,0.545,859.2,69.4,1
4012229,32098388724,63.0,95.0,-119.0,0,0.54,859.2,69.4,1
4012230,32098396723,62.0,87.0,-132.0,0,0.539,859.2,69.4,1
4012231,32098404726,63.0,81.0,-143.0,0,0.536,859.2,69.4,1
4012232,32098412723,66.0,78.0,-151.0,0,0.523,859.2,69.4,1
4012233,32098420724,64.0,74.0,-157.0,0,0.515,859.2,69.4,1
4012234,32098428727,67.0,73.0,-162.0,0,0.513,859.2,69.4,1
4012235,32098436723,66.0,71.0,-166.0,0,0.51,859.2,69.4,1
4012236,32098444723,65.0,70.0,-169.0,0,0.507,859.2,69.4,1
4012237,32098452723,69.0,69.0,-170.0,0,0.494,859.2,69.4,1
4012238,32098460723,68.0,69.0,-171.0,0,0.495,859.2,69.4,1
4012239,32098468723,67.0,69.0,-172.0,0,0.496,859.2,69.4,1
4012240,32098476727,64.0,67.0,-172.0,1,0.49,859.2,69.4,1
4012241,32098484723,64.0,67.0,-172.0,0,0.49,859.2,69.4,1
4012242,32098492723,64.0,66.0,-172.0,0,0.49,859.2,69.4,1
4012243,32098500726,62.0,65.0,-172.0,0,0.49,859.2,69.4,1
4012244,32098508722,60.0,64.0,-172.0,0,0.49,859.2,69.4,1
4012245,32098516727,60.0,63.0,-172.0,0,0.49,859.2,69.4,1
4012246,32098524723,56.0,61.0,-172.0,0,0.49,859.2,69.4,1
4012247,32098532724,56.0,60.0,-172.0,0,0.49,859.2,69.4,1
4012248,32098540723,50.0,58.0,-172.0,0,0.49,859.2,69.4,1
4012249,32098548723,47.0,55.0,-173.0,0,0.497,859.2,69.4,1
4012250,32098556723,48.0,53.0,-174.0,0,0.498,859.2,69.4,1
4012251,32098564728,44.0,51.0,-174.0,1,0.492,859.2,69.4,1
4012252,32098572723,45.0,50.0,-175.0,0,0.499,859.2,69.4,1
4012253,32098580724,42.0,48.0,-176.0,0,0.5,859.2,69.4,1
4012254,32098588723,41.0,46.0,-176.0,1,0.494,859.2,69.4,1
4012255,32098596724,36.0,44.0,-177.0,0,0.501,859.2,69.4,1
4012256,32098604723,36.0,42.0,-178.0,0,0.502,862.4,69.4,1
4012257,32098612725,36.0,40.0,-178.0,1,0.496,862.4,69.4,1
4012258,32098620723,36.0,39.0,-179.0,0,0.503,862.4,69.4,1
4012259,32098628723,38.0,39.0,-179.0,1,0.497,862.4,69.4,1
4012260,32098636723,36.0,38.0,-179.0,0,0.496,862.4,69.4,1
4012261,32098644723,42.0,39.0,-178.0,0,0.502,862.4,69.4,1
4012262,32098652723,41.0,40.0,-177.0,0,0.501,862.4,69.4,1
4012263,32098660723,44.0,41.0,-176.0,0,0.5,862.4,69.4,1
4012264,32098668724,45.0,42.0,-174.0,0,0.504,862.4,69.4,1
4012265,32098676725,48.0,43.0,-172.0,0,0.502,862.4,69.4,1
4012266,32098684723,53.0,46.0,-170.0,0,0.5,862.4,69.4,1
4012267,32098692726,59.0,49.0,-167.0,0,0.503,862.4,69.4,1
4012268,32098700723,61.0,52.0,-164.0,0,0.5,862.4,69.4,1
4012269,32098708723,67.0,55.0,-160.0,0,0.503,862.4,69.4,1
4012270,32098716723,68.0,59.0,-157.0,0,0.493,862.4,69.4,1
4012271,32098724724,76.0,63.0,-152.0,0,0.501,862.4,69.4,1
4012272,32098732726,83.0,68.0,-148.0,0,0.49,862.4,69.4,1
4012273,32098740723,88.0,73.0,-143.0,0,0.491,862.4,69.4,1
4012274,32098748727,90.0,77.0,-138.0,0,0.486,862.4,69.4,1
4012275,32098756723,95.0,81.0,-133.0,0,0.481,862.4,69.4,1
4012276,32098764726,105.0,87.0,-127.0,0,0.481,862.4,69.4,1
4012277,32098772724,111.0,93.0,-122.0,0,0.469,862.4,69.4,1
4012278,32098780723,115.0,98.0,-116.0,0,0.47,862.4,69.4,1
4012279,32098788723,120.0,103.0,-110.0,0,0.463,862.4,69.4,1
4012280,32098796723,121.0,108.0,-104.0,0,0.457,862.4,69.4,1
4012281,32098804724,125.0,112.0,-99.0,0,0.444,862.4,69.4,1
4012282,32098812723,130.0,116.0,-94.0,0,0.439,862.4,69.4,1
4012283,32098820723,132.0,120.0,-89.0,0,0.434,862.4,69.4,1
4012284,32098828723,140.0,125.0,-84.0,0,0.428,862.4,69.4,1
4012285,32098836723,139.0,128.0,-79.0,0,0.423,862.4,69.4,1
4012286,32098844723,143.0,132.0,-74.0,0,0.418,862.4,69.4,1
4012287,32098852723,151.0,137.0,-70.0,0,0.407,862.4,69.4,1
4012288,32098860723,159.0,142.0,-65.0,0,0.409,862.4,69.4,1
4012289,32098868722,169.0,149.0,-59.0,0,0.41,862.4,69.4,1
4012290,32098876726,180.0,156.0,-53.0,0,0.404,862.4,69.4,1
4012291,32098884723,200.0,167.0,-46.0,0,0.404,862.4,69.4,1
4012292,32098892723,227.0,181.0,-36.0,0,0.416,862.4,69.4,1
4012293,32098900723,260.0,200.0,-24.0,0,0.419,862.4,69.4,1
4012294,32098908726,304.0,226.0,-8.0,0,0.432,862.4,69.4,1
4012295,32098916723,344.0,254.0,12.0,0,0.461,862.4,69.4,1
4012296,32098924725,397.0,289.0,35.0,0,0.501,862.4,69.4,1
4012297,32098932723,448.0,327.0,63.0,0,0.555,862.4,69.4,1
4012298,32098940723,499.0,369.0,94.0,0,0.601,862.4,69.4,1
4012299,32098948723,548.0,412.0,128.0,0,0.648,862.4,69.4,1
4012300,32098956724,588.0,455.0,165.0,0,0.697,862.4,69.4,1
4012301,32098964723,633.0,498.0,202.0,0,0.734,862.4,69.4,1
4012302,32098972724,668.0,539.0,240.0,0,0.772,862.4,69.4,1
4012303,32098980724,695.0,577.0,277.0,0,0.8,862.4,69.4,1
4012304,32098988726,719.0,611.0,313.0,0,0.824,862.4,69.4,1
4012305,32098996725,732.0,641.0,346.0,0,0.835,862.4,69.4,1
4012306,32099004723,740.0,665.0,376.0,0,0.839,862.4,69.4,1
4012307,32099012726,740.0,683.0,401.0,0,0.826,862.4,69.4,1
4012308,32099020723,729.0,694.0,422.0,0,0.812,862.4,69.4,1
4012309,32099028726,716.0,699.0,437.0,0,0.778,862.4,69.4,1
4012310,32099036723,693.0,698.0,446.0,0,0.738,862.4,69.4,1
4012311,32099044723,670.0,691.0,450.0,0,0.704,862.4,69.4,1
4012312,32099052723,647.0,680.0,449.0,1,0.684,862.4,69.4,1
4012313,32099060726,614.0,664.0,443.0,0,0.716,862.4,69.4,1
4012314,32099068723,585.0,645.0,432.0,0,0.748,862.4,69.4,1
4012315,32099076724,553.0,623.0,418.0,0,0.764,862.4,69.4,1
4012316,32099084722,516.0,597.0,399.0,0,0.79,862.4,69.4,1
4012317,32099092723,484.0,570.0,377.0,0,0.799,862.4,69.4,1
4012318,32099100727,444.0,539.0,353.0,0,0.798,862.4,69.4,1
4012319,32099108723,412.0,508.0,326.0,0,0.797,862.4,69.4,1
4012320,32099116723,376.0,476.0,297.0,0,0.787,862.4,69.4,1
4012321,32099124723,340.0,443.0,266.0,0,0.772,862.4,69.4,1
4012322,32099132723,304.0,409.0,235.0,0,0.746,862.4,69.4,1
4012323,32099140723,272.0,376.0,202.0,0,0.723,862.4,69.4,1
4012324,32099148726,236.0,342.0,169.0,0,0.69,862.4,69.4,1
4012325,32099156725,205.0,309.0,136.0,0,0.656,862.4,69.4,1
4012326,32099164723,180.0,278.0,104.0,0,0.618,862.4,69.4,1
4012327,32099172723,149.0,246.0,71.0,0,0.587,862.4,69.4,1
4012328,32099180724,132.0,219.0,40.0,0,0.548,862.4,69.4,1
4012329,32099188723,113.0,193.0,11.0,0,0.512,862.4,69.4,1
4012330,32099196723,96.0,170.0,-16.0,0,0.504,862.4,69.4,1
4012331,32099204723,80.0,148.0,-42.0,0,0.524,862.4,69.4,1
4012332,32099212723,74.0,130.0,-65.0,0,0.53,862.4,69.4,1
4012333,32099220723,68.0,115.0,-86.0,0,0.539,862.4,69.4,1
4012334,32099228723,64.0,103.0,-104.0,0,0.539,864.0,69.4,1
4012335,32099236723,62.0,93.0,-119.0,0,0.534,864.0,69.4,1
4012336,32099244722,61.0,85.0,-132.0,0,0.533,864.0,69.4,1
4012337,32099252723,56.0,78.0,-143.0,0,0.53,864.0,69.4,1
4012338,32099260725,56.0,73.0,-152.0,0,0.525,864.0,69.4,1
4012339,32099268722,56.0,69.0,-159.0,0,0.518,864.0,69.4,1
4012340,32099276726,56.0,66.0,-164.0,0,0.509,864.0,69.4,1
4012341,32099284723,60.0,64.0,-169.0,0,0.514,864.0,69.4,1
4012342,32099292723,60.0,63.0,-171.0,0,0.495,864.0,69.4,1
4012343,32099300723,56.0,61.0,-174.0,0,0.505,864.0,69.4,1
4012344,32099308724,58.0,61.0,-175.0,0,0.492,864.0,69.4,1
4012345,32099316723,60.0,60.0,-176.0,0,0.493,864.0,69.4,1
4012346,32099324723,59.0,60.0,-176.0,1,0.486,864.0,69.4,1
4012347,32099332723,58.0,60.0,-176.0,0,0.486,864.0,69.4,1
4012348,32099340723,55.0,58.0,-176.0,0,0.486,864.0,69.4,1
4012349,32099348723,56.0,58.0,-176.0,0,0.486,864.0,69.4,1
4012350,32099356723,52.0,56.0,-176.0,0,0.485,864.0,69.4,1
4012351,32099364723,48.0,54.0,-176.0,0,0.485,864.0,69.4,1
4012352,32099372723,51.0,54.0,-176.0,0,0.485,864.0,69.4,1
4012353,32099380723,44.0,51.0,-177.0,0,0.492,864.0,69.4,1
4012354,32099388723,47.0,50.0,-177.0,1,0.486,864.0,69.4,1
4012355,32099396728,44.0,49.0,-177.0,0,0.486,864.0,69.4,1
4012356,32099404725,41.0,47.0,-178.0,0,0.493,864.0,69.4,1
4012357,32099412723,37.0,44.0,-178.0,1,0.486,864.0,69.4,1
4012358,32099420727,38.0,43.0,-179.0,0,0.494,864.0,69.4,1
4012359,32099428723,39.0,42.0,-179.0,1,0.487,864.0,69.4,1
4012360,32099436723,37.0,41.0,-179.0,0,0.487,864.0,69.4,1
4012361,32099444723,36.0,40.0,-179.0,0,0.487,864.0,69.4,1
4012362,32099452723,32.0,38.0,-180.0,0,0.494,864.0,69.4,1
4012363,32099460724,36.0,37.0,-180.0,1,0.488,864.0,69.4,1
4012364,32099468724,39.0,38.0,-179.0,0,0.493,864.0,69.4,1
4012365,32099476723,36.0,37.0,-179.0,1,0.487,864.0,69.4,1
4012366,32099484723,40.0,38.0,-178.0,0,0.492,864.0,69.4,1
4012367,32099492723,41.0,39.0,-176.0,0,0.497,864.0,69.4,1
4012368,32099500725,45.0,40.0,-175.0,0,0.489,864.0,69.4,1
4012369,32099508723,53.0,43.0,-173.0,0,0.494,864.0,69.4,1
4012370,32099516723,56.0,46.0,-170.0,0,0.498,864.0,69.4,1
4012371,32099524723,55.0,48.0,-167.0,0,0.495,864.0,69.4,1
4012372,32099532724,63.0,52.0,-163.0,0,0.498,864.0,69.4,1
4012373,32099540727,64.0,55.0,-160.0,0,0.488,860.8,69.4,1
4012374,32099548724,74.0,60.0,-156.0,0,0.491,860.8,69.4,1
4012375,32099556725,76.0,64.0,-151.0,0,0.492,860.8,69.4,1
4012376,32099564723,81.0,68.0,-147.0,0,0.481,860.8,69.4,1
4012377,32099572724,82.0,71.0,-142.0,0,0.483,860.8,69.4,1
4012378,32099580723,92.0,76.0,-137.0,0,0.478,860.8,69.4,1
4012379,32099588723,94.0,81.0,-132.0,0,0.473,860.8,69.4,1
4012380,32099596723,100.0,85.0,-127.0,0,0.468,860.8,69.4,1
4012381,32099604727,105.0,90.0,-122.0,0,0.463,860.8,69.4,1
4012382,32099612727,115.0,96.0,-116.0,0,0.464,860.8,69.4,1
4012383,32099620727,116.0,101.0,-111.0,0,0.452,860.8,69.4,1
4012384,32099628724,119.0,105.0,-105.0,0,0.453,860.8,69.4,1
4012385,32099636723,125.0,110.0,-100.0,0,0.441,860.8,69.4,1
4012386,32099644727,127.0,114.0,-95.0,0,0.436,860.8,69.4,1
4012387,32099652725,134.0,119.0,-89.0,0,0.437,860.8,69.4,1
4012388,32099660723,139.0,124.0,-84.0,0,0.424,860.8,69.4,1
4012389,32099668723,144.0,129.0,-79.0,0,0.419,860.8,69.4,1
4012390,32099676723,156.0,135.0,-73.0,0,0.42,860.8,69.4,1
4012391,32099684724,172.0,144.0,-66.0,0,0.421,860.8,69.4,1
4012392,32099692726,198.0,157.0,-58.0,0,0.42,860.8,69.4,1
4012393,32099700727,230.0,175.0,-47.0,0,0.431,860.8,69.4,1
4012394,32099708723,268.0,197.0,-32.0,0,0.444,860.8,69.4,1
4012395,32099716724,308.0,224.0,-14.0,0,0.448,860.8,69.4,1
4012396,32099724723,357.0,256.0,8.0,0,0.47,860.8,69.4,1
4012397,32099732723,407.0,293.0,34.0,0,0.516,860.8,69.4,1
4012398,32099740723,455.0,332.0,63.0,0,0.559,860.8,69.4,1
4012399,32099748723,504.0,374.0,96.0,0,0.61,860.8,69.4,1
4012400,32099756726,545.0,415.0,130.0,0,0.648,860.8,69.4,1
4012401,32099764723,585.0,456.0,166.0,0,0.691,860.8,69.4,1
4012402,32099772723,620.0,496.0,203.0,0,0.73,860.8,69.4,1
4012403,32099780723,649.0,533.0,239.0,0,0.759,860.8,69.4,1
4012404,32099788723,668.0,566.0,273.0,0,0.779,860.8,69.4,1
4012405,32099796725,684.0,595.0,305.0,0,0.794,860.8,69.4,1
4012406,32099804725,692.0,618.0,334.0,0,0.799,860.8,69.4,1
4012407,32099812722,693.0,636.0,359.0,0,0.793,860.8,69.4,1
4012408,32099820726,687.0,649.0,380.0,0,0.781,860.8,69.4,1
4012409,32099828723,676.0,655.0,396.0,0,0.757,860.8,69.4,1
4012410,32099836726,660.0,656.0,406.0,0,0.72,860.8,69.4,1
4012411,32099844726,637.0,652.0,412.0,0,0.694,860.8,69.4,1
4012412,32099852726,613.0,642.0,412.0,1,0.653,860.8,69.4,1
4012413,32099860723,587.0,629.0,408.0,0,0.677,860.8,69.4,1
4012414,32099868723,556.0,611.0,399.0,0,0.708,860.8,69.4,1
4012415,32099876724,531.0,592.0,387.0,0,0.723,860.8,69.4,1
4012416,32099884723,493.0,568.0,370.0,0,0.749,860.8,69.4,1
4012417,32099892725,460.0,542.0,351.0,0,0.751,860.8,69.4,1
4012418,32099900723,427.0,514.0,328.0,0,0.761,860.8,69.4,1
4012419,32099908726,393.0,485.0,303.0,0,0.755,860.8,69.4,1
4012420,32099916723,360.0,454.0,276.0,0,0.745,860.8,69.4,1
4012421,32099924723,327.0,423.0,248.0,0,0.727,860.8,69.4,1
4012422,32099932723,289.0,391.0,218.0,0,0.71,860.8,69.4,1
4012423,32099940723,261.0,359.0,187.0,0,0.685,860.8,69.4,1
4012424,32099948726,233.0,329.0,157.0,0,0.651,860.8,69.4,1
4012425,32099956727,200.0,298.0,126.0,0,0.624,860.8,69.4,1
4012426,32099964723,181.0,269.0,96.0,0,0.589,860.8,69.4,1
4012427,32099972723,161.0,243.0,67.0,0,0.556,860.8,69.4,1
4012428,32099980724,138.0,218.0,39.0,0,0.524,860.8,69.4,1
4012429,32099988723,124.0,195.0,12.0,0,0.495,860.8,69.4,1
4012430,32099996723,114.0,175.0,-12.0,0,0.483,860.8,69.4,1
4012431,32100004723,104.0,158.0,-34.0,0,0.492,860.8,69.4,1
4012432,32100012724,99.0,144.0,-54.0,0,0.499,860.8,69.4,1
4012433,32100020723,92.0,131.0,-71.0,0,0.496,860.8,69.4,1
4012434,32100028723,94.0,122.0,-86.0,0,0.498,860.8,69.4,1
4012435,32100036723,91.0,115.0,-99.0,0,0.498,860.8,69.4,1
4012436,32100044723,86.0,108.0,-109.0,0,0.487,860.8,69.4,1
4012437,32100052724,91.0,104.0,-118.0,0,0.489,860.8,69.4,1
4012438,32100060723,91.0,101.0,-124.0,0,0.474,860.8,69.4,1
4012439,32100068723,91.0,98.0,-130.0,0,0.48,860.8,69.4,1
4012440,32100076723,93.0,97.0,-133.0,0,0.462,860.8,69.4,1
4012441,32100084724,92.0,96.0,-136.0,0,0.465,860.8,69.4,1
4012442,32100092723,92.0,95.0,-138.0,0,0.46,860.8,69.4,1
4012443,32100100723,94.0,95.0,-139.0,0,0.455,860.8,69.4,1
4012444,32100108723,93.0,94.0,-140.0,0,0.456,860.8,69.4,1
4012445,32100116723,89.0,93.0,-141.0,0,0.457,860.8,69.4,1
4012446,32100124723,90.0,92.0,-141.0,1,0.451,860.8,69.4,1
4012447,32100132723,91.0,92.0,-141.0,0,0.451,860.8,69.4,1
4012448,32100140725,84.0,90.0,-141.0,0,0.451,860.8,69.4,1
4012449,32100148727,82.0,88.0,-142.0,0,0.458,860.8,69.4,1
4012450,32100156723,79.0,86.0,-143.0,0,0.459,860.8,69.4,1
4012451,32100164726,77.0,84.0,-143.0,1,0.453,852.8,69.4,1
4012452,32100172723,75.0,82.0,-144.0,0,0.46,852.8,69.4,1
4012453,32100180725,71.0,79.0,-145.0,0,0.461,852.8,69.4,1
4012454,32100188723,69.0,77.0,-147.0,0,0.47,852.8,69.4,1
4012455,32100196724,68.0,75.0,-148.0,0,0.464,852.8,69.4,1
4012456,32100204725,66.0,72.0,-149.0,0,0.465,852.8,69.4,1
4012457,32100212723,60.0,69.0,-150.0,0,0.466,852.8,69.4,1
4012458,32100220723,56.0,66.0,-152.0,0,0.475,852.8,69.4,1
4012459,32100228727,55.0,63.0,-154.0,0,0.477,852.8,69.4,1
4012460,32100236724,56.0,62.0,-155.0,0,0.471,852.8,69.4,1
4012461,32100244726,52.0,59.0,-156.0,0,0.472,852.8,69.4,1
4012462,32100252723,54.0,58.0,-157.0,0,0.473,852.8,69.4,1
4012463,32100260727,54.0,57.0,-158.0,0,0.474,852.8,69.4,1
4012464,32100268723,55.0,57.0,-158.0,1,0.467,852.8,69.4,1
4012465,32100276725,48.0,54.0,-159.0,0,0.475,852.8,69.4,1
4012466,32100284723,52.0,54.0,-159.0,1,0.468,852.8,69.4,1
4012467,32100292725,54.0,54.0,-159.0,0,0.468,852.8,69.4,1
4012468,32100300722,56.0,54.0,-159.0,0,0.468,852.8,69.4,1
4012469,32100308724,58.0,55.0,-158.0,0,0.473,852.8,69.4,1
4012470,32100316723,60.0,56.0,-156.0,0,0.478,852.8,69.4,1
4012471,32100324726,69.0,59.0,-154.0,0,0.476,852.8,69.4,1
4012472,32100332724,69.0,62.0,-152.0,0,0.473,852.8,69.4,1
4012473,32100340723,75.0,65.0,-149.0,0,0.477,852.8,69.4,1
4012474,32100348723,80.0,69.0,-146.0,0,0.474,852.8,69.4,1
4012475,32100356725,83.0,72.0,-142.0,0,0.477,852.8,69.4,1
4012476,32100364723,85.0,75.0,-138.0,0,0.472,852.8,69.4,1
4012477,32100372724,87.0,78.0,-134.0,0,0.468,852.8,69.4,1
4012478,32100380723,97.0,83.0,-130.0,0,0.464,852.8,69.4,1
4012479,32100388726,99.0,87.0,-126.0,0,0.46,852.8,69.4,1
4012480,32100396724,106.0,91.0,-121.0,0,0.462,852.8,69.4,1
4012481,32100404723,109.0,96.0,-116.0,0,0.457,852.8,69.4,1
4012482,32100412723,112.0,100.0,-112.0,0,0.446,852.8,69.4,1
4012483,32100420723,123.0,105.0,-107.0,0,0.447,852.8,69.4,1
4012484,32100428726,132.0,112.0,-101.0,0,0.448,852.8,69.4,1
4012485,32100436723,148.0,121.0,-94.0,0,0.448,852.8,69.4,1
4012486,32100444723,169.0,132.0,-86.0,0,0.447,852.8,69.4,1
4012487,32100452726,199.0,148.0,-75.0,0,0.458,852.8,69.4,1
4012488,32100460727,230.0,168.0,-62.0,0,0.459,852.8,69.4,1
4012489,32100468723,278.0,195.0,-45.0,0,0.47,852.8,69.4,1
4012490,32100476724,323.0,226.0,-24.0,0,0.476,852.8,69.4,1
4012491,32100484723,374.0,262.0,1.0,0,0.481,852.8,69.4,1
4012492,32100492726,422.0,301.0,30.0,0,0.527,852.8,69.4,1
4012493,32100500723,473.0,342.0,63.0,0,0.575,852.8,69.4,1
4012494,32100508723,520.0,385.0,98.0,0,0.617,852.8,69.4,1
4012495,32100516723,560.0,428.0,134.0,0,0.657,852.8,69.4,1
4012496,32100524723,599.0,469.0,172.0,0,0.701,852.8,69.4,1
4012497,32100532723,631.0,508.0,209.0,0,0.732,852.8,69.4,1
4012498,32100540723,656.0,544.0,246.0,0,0.764,852.8,69.4,1
4012499,32100548723,676.0,576.0,280.0,0,0.78,852.8,69.4,1
4012500,32100556723,684.0,602.0,311.0,0,0.789,852.8,69.4,1
4012501,32100564723,692.0,624.0,339.0,0,0.792,852.8,69.4,1
4012502,32100572724,692.0,641.0,363.0,0,0.783,852.8,69.4,1
4012503,32100580723,682.0,651.0,382.0,0,0.762,852.8,69.4,1
4012504,32100588723,671.0,656.0,396.0,0,0.735,852.8,69.4,1
4012505,32100596723,652.0,655.0,405.0,0,0.705,852.8,69.4,1
4012506,32100604723,628.0,648.0,409.0,0,0.672,852.8,69.4,1
4012507,32100612728,604.0,637.0,408.0,1,0.651,852.8,69.4,1
4012508,32100620723,577.0,623.0,402.0,0,0.678,852.8,69.4,1
4012509,32100628724,548.0,605.0,392.0,0,0.698,852.8,69.4,1
4012510,32100636723,519.0,584.0,378.0,0,0.715,852.8,69.4,1
4012511,32100644724,478.0,558.0,361.0,0,0.723,852.8,69.4,1
4012512,32100652723,447.0,531.0,340.0,0,0.734,852.8,69.4,1
4012513,32100660727,411.0,502.0,316.0,0,0.733,852.8,69.4,1
4012514,32100668723,372.0,471.0,290.0,0,0.723,852.8,69.4,1
4012515,32100676726,337.0,438.0,261.0,0,0.714,852.8,69.4,1
4012516,32100684726,301.0,405.0,231.0,0,0.692,852.8,69.4,1
4012517,32100692723,265.0,371.0,199.0,0,0.672,852.8,69.4,1
4012518,32100700724,230.0,337.0,167.0,0,0.642,852.8,69.4,1
4012519,32100708726,200.0,304.0,134.0,0,0.615,852.8,69.4,1
4012520,32100716723,169.0,271.0,102.0,0,0.581,852.8,69.4,1
4012521,32100724727,146.0,241.0,70.0,0,0.552,852.8,69.4,1
4012522,32100732723,122.0,212.0,39.0,0,0.521,852.8,69.4,1
4012523,32100740723,101.0,185.0,9.0,0,0.503,852.8,69.4,1
4012524,32100748723,86.0,161.0,-19.0,0,0.516,852.8,69.4,1
4012525,32100756724,72.0,139.0,-45.0,0,0.529,852.8,69.4,1
4012526,32100764723,61.0,120.0,-69.0,0,0.54,852.8,69.4,1
4012527,32100772723,56.0,105.0,-90.0,0,0.543,852.8,69.4,1
4012528,32100780725,49.0,91.0,-108.0,0,0.541,852.8,69.4,1
4012529,32100788725,43.0,80.0,-125.0,0,0.551,846.4,69.4,1
4012530,32100796725,44.0,71.0,-139.0,0,0.545,846.4,69.4,1
4012531,32100804724,44.0,64.0,-150.0,0,0.536,846.4,69.4,1
4012532,32100812723,44.0,59.0,-159.0,0,0.531,846.4,69.4,1
4012533,32100820722,45.0,56.0,-166.0,0,0.524,846.4,69.4,1
4012534,32100828723,43.0,53.0,-172.0,0,0.522,846.4,69.4,1
4012535,32100836727,47.0,51.0,-176.0,0,0.512,846.4,69.4,1
4012536,32100844723,46.0,50.0,-179.0,0,0.508,846.4,69.4,1
4012537,32100852726,49.0,50.0,-181.0,0,0.503,846.4,69.4,1
4012538,32100860723,44.0,48.0,-182.0,0,0.496,846.4,69.4,1
4012539,32100868723,49.0,49.0,-183.0,0,0.496,846.4,69.4,1
4012540,32100876724,47.0,48.0,-183.0,1,0.489,846.4,69.4,1
4012541,32100884723,50.0,49.0,-183.0,0,0.488,846.4,69.4,1
4012542,32100892723,43.0,47.0,-183.0,0,0.487,846.4,69.4,1
4012543,32100900723,39.0,45.0,-183.0,0,0.486,846.4,69.4,1
4012544,32100908726,42.0,44.0,-183.0,0,0.485,846.4,69.4,1
4012545,32100916723,44.0,44.0,-182.0,0,0.49,846.4,69.4,1
4012546,32100924723,40.0,43.0,-182.0,1,0.483,846.4,69.4,1
4012547,32100932723,40.0,42.0,-182.0,0,0.482,846.4,69.4,1
4012548,32100940723,38.0,41.0,-181.0,0,0.487,846.4,69.4,1
4012549,32100948726,39.0,41.0,-181.0,1,0.48,846.4,69.4,1
4012550,32100956723,38.0,40.0,-181.0,0,0.48,846.4,69.4,1
4012551,32100964723,32.0,38.0,-180.0,0,0.485,846.4,69.4,1
4012552,32100972723,34.0,37.0,-180.0,1,0.479,846.4,69.4,1
4012553,32100980723,33.0,36.0,-180.0,0,0.479,846.4,69.4,1
4012554,32100988727,33.0,35.0,-180.0,0,0.478,846.4,69.4,1
4012555,32100996722,35.0,35.0,-180.0,0,0.478,846.4,69.4,1
4012556,32101004724,35.0,35.0,-179.0,0,0.484,846.4,69.4,1
4012557,32101012726,36.0,35.0,-178.0,0,0.483,846.4,69.4,1
4012558,32101020723,33.0,35.0,-177.0,0,0.482,846.4,69.4,1
4012559,32101028723,38.0,36.0,-176.0,0,0.48,846.4,69.4,1
4012560,32101036723,40.0,37.0,-175.0,0,0.479,846.4,69.4,1
4012561,32101044723,41.0,38.0,-173.0,0,0.484,846.4,69.4,1
4012562,32101052723,44.0,39.0,-171.0,0,0.482,846.4,69.4,1
4012563,32101060723,45.0,41.0,-169.0,0,0.48,846.4,69.4,1
4012564,32101068723,51.0,43.0,-167.0,0,0.478,846.4,69.4,1
4012565,32101076723,56.0,46.0,-164.0,0,0.481,846.4,69.4,1
4012566,32101084724,58.0,49.0,-160.0,0,0.484,846.4,69.4,1
4012567,32101092723,66.0,53.0,-157.0,0,0.474,846.4,69.4,1
4012568,32101100723,68.0,57.0,-153.0,0,0.477,843.2,69.4,1
4012569,32101108723,74.0,61.0,-148.0,0,0.479,843.2,69.4,1
4012570,32101116724,79.0,65.0,-144.0,0,0.468,843.2,69.4,1
4012571,32101124725,84.0,70.0,-139.0,0,0.47,843.2,69.4,1
4012572,32101132723,86.0,74.0,-134.0,0,0.464,843.2,69.4,1
4012573,32101140727,96.0,79.0,-129.0,0,0.459,843.2,69.4,1
4012574,32101148726,102.0,85.0,-124.0,0,0.454,843.2,69.4,1
4012575,32101156723,104.0,89.0,-118.0,0,0.455,843.2,69.4,1
4012576,32101164724,108.0,94.0,-113.0,0,0.443,843.2,69.4,1
4012577,32101172725,112.0,98.0,-107.0,0,0.444,843.2,69.4,1
4012578,32101180726,116.0,103.0,-102.0,0,0.432,843.2,69.4,1
4012579,32101188726,127.0,108.0,-97.0,0,0.427,843.2,69.4,1
4012580,32101196725,134.0,115.0,-91.0,0,0.429,843.2,69.4,1
4012581,32101204728,141.0,121.0,-85.0,0,0.423,843.2,69.4,1
4012582,32101212726,151.0,128.0,-78.0,0,0.423,843.2,69.4,1
4012583,32101220723,169.0,138.0,-71.0,0,0.416,843.2,69.4,1
4012584,32101228723,196.0,152.0,-61.0,0,0.428,843.2,69.4,1
4012585,32101236724,226.0,170.0,-49.0,0,0.431,843.2,69.4,1
4012586,32101244723,265.0,193.0,-34.0,0,0.438,843.2,69.4,1
4012587,32101252727,308.0,221.0,-15.0,0,0.448,843.2,69.4,1
4012588,32101260726,356.0,254.0,7.0,0,0.478,843.2,69.4,1
4012589,32101268728,413.0,292.0,34.0,0,0.531,843.2,69.4,1
4012590,32101276725,466.0,334.0,65.0,0,0.581,843.2,69.4,1
4012591,32101284724,516.0,378.0,100.0,0,0.632,843.2,69.4,1
4012592,32101292723,568.0,424.0,137.0,0,0.677,843.2,69.4,1
4012593,32101300722,610.0,469.0,176.0,0,0.722,843.2,69.4,1
4012594,32101308726,650.0,513.0,216.0,0,0.762,843.2,69.4,1
4012595,32101316724,681.0,554.0,255.0,0,0.791,843.2,69.4,1
4012596,32101324723,701.0,590.0,292.0,0,0.812,843.2,69.4,1
4012597,32101332726,722.0,622.0,328.0,0,0.831,843.2,69.4,1
4012598,32101340724,728.0,647.0,359.0,0,0.827,843.2,69.4,1
4012599,32101348723,733.0,668.0,387.0,0,0.826,843.2,69.4,1
4012600,32101356723,729.0,683.0,410.0,0,0.808,843.2,69.4,1
4012601,32101364726,717.0,691.0,428.0,0,0.783,843.2,69.4,1
4012602,32101372726,704.0,694.0,441.0,0,0.754,843.2,69.4,1
4012603,32101380724,680.0,691.0,448.0,0,0.714,843.2,69.4,1
4012604,32101388723,659.0,683.0,450.0,0,0.681,843.2,69.4,1
4012605,32101396726,628.0,670.0,447.0,1,0.685,843.2,69.4,1
4012606,32101404723,603.0,654.0,440.0,0,0.706,843.2,69.4,1
4012607,32101412726,571.0,634.0,428.0,0,0.732,841.6,69.4,1
4012608,32101420723,538.0,610.0,412.0,0,0.749,841.6,69.4,1
4012609,32101428728,500.0,584.0,392.0,0,0.762,841.6,69.4,1
4012610,32101436723,470.0,556.0,370.0,0,0.76,841.6,69.4,1
4012611,32101444725,432.0,526.0,344.0,0,0.763,841.6,69.4,1
4012612,32101452726,400.0,495.0,317.0,0,0.747,841.6,69.4,1
4012613,32101460723,363.0,463.0,288.0,0,0.733,841.6,69.4,1
4012614,32101468723,327.0,430.0,258.0,0,0.71,841.6,69.4,1
4012615,32101476725,292.0,397.0,226.0,0,0.689,841.6,69.4,1
4012616,32101484723,261.0,364.0,194.0,0,0.658,841.6,69.4,1
4012617,32101492723,227.0,331.0,161.0,0,0.629,841.6,69.4,1
4012618,32101500723,195.0,298.0,128.0,0,0.597,841.6,69.4,1
4012619,32101508726,173.0,268.0,96.0,0,0.562,841.6,69.4,1
4012620,32101516727,152.0,240.0,65.0,0,0.529,841.6,69.4,1
4012621,32101524724,130.0,213.0,36.0,0,0.496,841.6,69.4,1
4012622,32101532725,110.0,188.0,8.0,0,0.496,841.6,69.4,1
4012623,32101540724,99.0,166.0,-19.0,0,0.514,841.6,69.4,1
4012624,32101548723,86.0,147.0,-43.0,0,0.52,841.6,69.4,1
4012625,32101556723,77.0,130.0,-64.0,0,0.523,841.6,69.4,1
4012626,32101564723,71.0,116.0,-84.0,0,0.535,841.6,69.4,1
4012627,32101572727,67.0,104.0,-101.0,0,0.533,841.6,69.4,1
4012628,32101580724,61.0,93.0,-116.0,0,0.534,841.6,69.4,1
4012629,32101588726,56.0,84.0,-128.0,0,0.525,841.6,69.4,1
4012630,32101596728,57.0,78.0,-139.0,0,0.528,841.6,69.4,1
4012631,32101604723,58.0,73.0,-148.0,0,0.523,841.6,69.4,1
4012632,32101612724,60.0,70.0,-155.0,0,0.516,841.6,69.4,1
4012633,32101620723,56.0,66.0,-160.0,0,0.507,841.6,69.4,1
4012634,32101628724,56.0,64.0,-164.0,0,0.504,841.6,69.4,1
4012635,32101636724,56.0,62.0,-168.0,0,0.507,841.6,69.4,1
4012636,32101644723,54.0,60.0,-170.0,0,0.495,841.6,69.4,1
4012637,32101652722,52.0,58.0,-172.0,0,0.496,841.6,69.4,1
4012638,32101660723,48.0,56.0,-174.0,0,0.497,841.6,69.4,1
4012639,32101668723,50.0,54.0,-176.0,0,0.499,841.6,69.4,1
4012640,32101676726,46.0,52.0,-177.0,0,0.492,841.6,69.4,1
4012641,32101684723,49.0,51.0,-178.0,0,0.492,841.6,69.4,1
4012642,32101692725,46.0,50.0,-178.0,1,0.485,841.6,69.4,1
4012643,32101700727,47.0,49.0,-178.0,0,0.484,841.6,69.4,1
4012644,32101708726,44.0,48.0,-179.0,0,0.49,841.6,69.4,1
4012645,32101716723,41.0,46.0,-179.0,1,0.483,841.6,69.4,1
4012646,32101724723,40.0,45.0,-179.0,0,0.482,848.0,69.4,1
4012647,32101732727,44.0,45.0,-179.0,0,0.481,848.0,69.4,1
4012648,32101740723,41.0,44.0,-179.0,0,0.48,848.0,69.4,1
4012649,32101748723,40.0,43.0,-179.0,0,0.479,848.0,69.4,1
4012650,32101756723,40.0,42.0,-179.0,0,0.478,848.0,69.4,1
4012651,32101764723,38.0,41.0,-178.0,0,0.483,848.0,69.4,1
4012652,32101772725,34.0,39.0,-178.0,1,0.476,848.0,69.4,1
4012653,32101780723,32.0,38.0,-179.0,0,0.483,848.0,69.4,1
4012654,32101788724,35.0,37.0,-178.0,1,0.481,848.0,69.4,1
4012655,32101796723,36.0,37.0,-178.0,1,0.475,848.0,69.4,1
4012656,32101804723,36.0,37.0,-178.0,0,0.474,848.0,69.4,1
4012657,32101812723,38.0,37.0,-177.0,0,0.479,848.0,69.4,1
4012658,32101820728,33.0,36.0,-176.0,0,0.478,848.0,69.4,1
4012659,32101828723,39.0,37.0,-175.0,0,0.477,848.0,69.4,1
4012660,32101836725,41.0,38.0,-174.0,0,0.476,848.0,69.4,1
4012661,32101844723,44.0,39.0,-172.0,0,0.48,848.0,69.4,1
4012662,32101852724,47.0,41.0,-170.0,0,0.478,848.0,69.4,1
4012663,32101860723,49.0,43.0,-168.0,0,0.476,848.0,69.4,1
4012664,32101868724,52.0,45.0,-165.0,0,0.48,848.0,69.4,1
4012665,32101876727,55.0,48.0,-162.0,0,0.477,848.0,69.4,1
4012666,32101884726,58.0,50.0,-159.0,0,0.474,848.0,69.4,1
4012667,32101892727,62.0,53.0,-156.0,0,0.471,848.0,69.4,1
4012668,32101900723,67.0,56.0,-153.0,0,0.468,848.0,69.4,1
4012669,32101908726,71.0,60.0,-149.0,0,0.471,848.0,69.4,1
4012670,32101916723,76.0,64.0,-145.0,0,0.467,848.0,69.4,1
4012671,32101924723,76.0,67.0,-141.0,0,0.462,848.0,69.4,1
4012672,32101932725,82.0,70.0,-136.0,0,0.464,835.2,70.8,1
4012673,32101940725,84.0,74.0,-132.0,0,0.453,835.2,70.8,1
4012674,32101948725,87.0,77.0,-128.0,0,0.449,835.2,70.8,1
4012675,32101956725,92.0,81.0,-124.0,0,0.445,835.2,70.8,1
4012676,32101964723,97.0,85.0,-120.0,0,0.441,835.2,70.8,1
4012677,32101972723,101.0,89.0,-115.0,0,0.443,835.2,70.8,1
4012678,32101980724,110.0,94.0,-110.0,0,0.438,835.2,70.8,1
4012679,32101988723,122.0,101.0,-105.0,0,0.433,835.2,70.8,1
4012680,32101996724,140.0,110.0,-98.0,0,0.441,835.2,70.8,1
4012681,32102004726,160.0,122.0,-89.0,0,0.446,835.2,70.8,1
4012682,32102012726,185.0,137.0,-79.0,0,0.443,835.2,70.8,1
4012683,32102020727,224.0,158.0,-65.0,0,0.458,835.2,70.8,1
4012684,32102028723,270.0,185.0,-48.0,0,0.462,835.2,70.8,1
4012685,32102036723,317.0,217.0,-26.0,0,0.474,835.2,70.8,1
4012686,32102044724,367.0,254.0,-1.0,0,0.49,835.2,70.8,1
4012687,32102052723,420.0,294.0,29.0,0,0.542,835.2,70.8,1
4012688,32102060723,472.0,337.0,62.0,0,0.587,835.2,70.8,1
4012689,32102068723,523.0,382.0,98.0,0,0.634,835.2,70.8,1
4012690,32102076722,568.0,427.0,137.0,0,0.683,835.2,70.8,1
4012691,32102084727,606.0,471.0,176.0,0,0.722,835.2,70.8,1
4012692,32102092726,638.0,511.0,215.0,0,0.758,835.2,70.8,1
4012693,32102100727,667.0,549.0,253.0,0,0.786,835.2,70.8,1
4012694,32102108723,686.0,582.0,289.0,0,0.806,835.2,70.8,1
4012695,32102116723,696.0,610.0,321.0,0,0.81,835.2,70.8,1
4012696,32102124726,700.0,632.0,350.0,0,0.813,835.2,70.8,1
4012697,32102132723,694.0,647.0,374.0,0,0.798,835.2,70.8,1
4012698,32102140723,687.0,657.0,394.0,0,0.782,835.2,70.8,1
4012699,32102148723,672.0,660.0,407.0,0,0.741,835.2,70.8,1
4012700,32102156723,652.0,658.0,416.0,0,0.717,835.2,70.8,1
4012701,32102164723,626.0,650.0,419.0,0,0.677,835.2,70.8,1
4012702,32102172723,601.0,638.0,417.0,1,0.669,835.2,70.8,1
4012703,32102180726,573.0,623.0,410.0,0,0.696,835.2,70.8,1
4012704,32102188723,541.0,603.0,399.0,0,0.715,835.2,70.8,1
4012705,32102196723,516.0,582.0,384.0,0,0.732,835.2,70.8,1
4012706,32102204723,479.0,557.0,366.0,0,0.739,835.2,70.8,1
4012707,32102212725,448.0,530.0,345.0,0,0.743,835.2,70.8,1
4012708,32102220723,412.0,502.0,321.0,0,0.741,835.2,70.8,1
4012709,32102228725,380.0,472.0,296.0,0,0.726,835.2,70.8,1
4012710,32102236723,347.0,442.0,268.0,0,0.717,835.2,70.8,1
4012711,32102244724,310.0,410.0,239.0,0,0.694,835.2,70.8,1
4012712,32102252724,280.0,378.0,209.0,0,0.67,835.2,70.8,1
4012713,32102260726,242.0,345.0,178.0,0,0.643,835.2,70.8,1
4012714,32102268723,217.0,314.0,147.0,0,0.611,835.2,70.8,1
4012715,32102276726,184.0,283.0,115.0,0,0.583,835.2,70.8,1
4012716,32102284723,155.0,252.0,84.0,0,0.548,835.2,70.8,1
4012717,32102292723,137.0,224.0,54.0,0,0.515,835.2,70.8,1
4012718,32102300723,110.0,196.0,24.0,0,0.489,835.2,70.8,1
4012719,32102308725,95.0,172.0,-4.0,0,0.503,835.2,70.8,1
4012720,32102316723,83.0,150.0,-30.0,0,0.517,835.2,70.8,1
4012721,32102324724,68.0,130.0,-53.0,0,0.522,835.2,70.8,1
4012722,32102332723,65.0,114.0,-75.0,0,0.538,835.2,70.8,1
4012723,32102340723,53.0,100.0,-94.0,0,0.538,835.2,70.8,1
4012724,32102348724,55.0,89.0,-111.0,0,0.542,836.8,70.8,1
4012725,32102356725,54.0,80.0,-125.0,0,0.537,836.8,70.8,1
4012726,32102364723,50.0,73.0,-136.0,0,0.527,836.8,70.8,1
4012727,32102372723,48.0,67.0,-146.0,0,0.529,836.8,70.8,1
4012728,32102380723,50.0,63.0,-154.0,0,0.523,836.8,70.8,1
4012729,32102388723,51.0,60.0,-160.0,0,0.515,836.8,70.8,1
4012730,32102396725,51.0,58.0,-165.0,0,0.513,836.8,70.8,1
4012731,32102404723,48.0,55.0,-168.0,0,0.502,836.8,70.8,1
4012732,32102412725,48.0,54.0,-171.0,0,0.504,836.8,70.8,1
4012733,32102420723,46.0,52.0,-173.0,0,0.499,836.8,70.8,1
4012734,32102428723,44.0,50.0,-175.0,0,0.5,836.8,70.8,1
4012735,32102436723,43.0,48.0,-176.0,0,0.494,836.8,70.8,1
4012736,32102444723,45.0,47.0,-177.0,0,0.494,836.8,70.8,1
4012737,32102452723,41.0,46.0,-178.0,0,0.494,836.8,70.8,1
4012738,32102460723,43.0,45.0,-178.0,1,0.487,836.8,70.8,1
4012739,32102468723,38.0,43.0,-179.0,0,0.493,836.8,70.8,1
4012740,32102476723,40.0,43.0,-179.0,1,0.486,836.8,70.8,1
4012741,32102484723,36.0,41.0,-179.0,0,0.484,836.8,70.8,1
4012742,32102492726,40.0,41.0,-179.0,0,0.483,836.8,70.8,1
4012743,32102500723,36.0,40.0,-179.0,0,0.482,836.8,70.8,1
4012744,32102508723,35.0,38.0,-179.0,0,0.481,836.8,70.8,1
4012745,32102516726,34.0,37.0,-179.0,0,0.48,836.8,70.8,1
4012746,32102524724,33.0,36.0,-179.0,0,0.479,836.8,70.8,1
4012747,32102532723,34.0,36.0,-179.0,0,0.478,836.8,70.8,1
4012748,32102540723,34.0,35.0,-178.0,0,0.482,836.8,70.8,1
4012749,32102548723,32.0,35.0,-178.0,1,0.475,836.8,70.8,1
4012750,32102556723,36.0,35.0,-177.0,0,0.48,836.8,70.8,1
4012751,32102564723,36.0,35.0,-176.0,0,0.478,836.8,70.8,1
4012752,32102572726,39.0,36.0,-175.0,0,0.476,836.8,70.8,1
4012753,32102580723,37.0,36.0,-174.0,0,0.475,836.8,70.8,1
4012754,32102588724,41.0,37.0,-172.0,0,0.479,836.8,70.8,1
4012755,32102596724,41.0,38.0,-170.0,0,0.476,836.8,70.8,1
4012756,32102604725,40.0,39.0,-169.0,0,0.469,836.8,70.8,1
4012757,32102612723,46.0,40.0,-167.0,0,0.473,836.8,70.8,1
4012758,32102620723,50.0,43.0,-164.0,0,0.476,836.8,70.8,1
4012759,32102628725,52.0,45.0,-162.0,0,0.467,836.8,70.8,1
4012760,32102636723,61.0,49.0,-159.0,0,0.47,836.8,70.8,1
4012761,32102644723,68.0,54.0,-155.0,0,0.473,836.8,70.8,1
4012762,32102652727,68.0,57.0,-151.0,0,0.469,836.8,70.8,1
4012763,32102660723,72.0,61.0,-146.0,0,0.47,833.6,70.8,1
4012764,32102668723,83.0,66.0,-142.0,0,0.459,833.6,70.8,1
4012765,32102676723,86.0,71.0,-136.0,0,0.467,833.6,70.8,1
4012766,32102684723,91.0,76.0,-131.0,0,0.455,833.6,70.8,1
4012767,32102692723,95.0,80.0,-126.0,0,0.449,833.6,70.8,1
4012768,32102700723,100.0,85.0,-121.0,0,0.444,833.6,70.8,1
4012769,32102708726,104.0,90.0,-115.0,0,0.445,833.6,70.8,1
4012770,32102716723,111.0,95.0,-110.0,0,0.433,833.6,70.8,1
4012771,32102724723,113.0,99.0,-105.0,0,0.428,833.6,70.8,1
4012772,32102732723,117.0,104.0,-99.0,0,0.429,833.6,70.8,1
4012773,32102740726,121.0,108.0,-94.0,0,0.417,833.6,70.8,1
4012774,32102748724,124.0,112.0,-89.0,0,0.412,833.6,70.8,1
4012775,32102756724,134.0,117.0,-84.0,0,0.407,833.6,70.8,1
4012776,32102764723,142.0,123.0,-79.0,0,0.403,833.6,70.8,1
4012777,32102772723,160.0,132.0,-72.0,0,0.41,833.6,70.8,1
4012778,32102780722,178.0,143.0,-64.0,0,0.409,833.6,70.8,1
4012779,32102788726,209.0,159.0,-54.0,0,0.414,833.6,70.8,1
4012780,32102796724,242.0,179.0,-41.0,0,0.423,833.6,70.8,1
4012781,32102804723,283.0,204.0,-24.0,0,0.435,833.6,70.8,1
4012782,32102812723,325.0,234.0,-4.0,0,0.458,833.6,70.8,1
4012783,32102820723,374.0,268.0,20.0,0,0.504,833.6,70.8,1
4012784,32102828723,425.0,306.0,48.0,0,0.552,833.6,70.8,1
4012785,32102836724,473.0,346.0,79.0,0,0.596,833.6,70.8,17
4012786,32102844723,521.0,389.0,113.0,0,0.642,833.6,70.8,17
4012787,32102852723,564.0,431.0,149.0,0,0.685,833.6,70.8,17
4012788,32102860723,604.0,473.0,186.0,0,0.724,833.6,70.8,17
4012789,32102868723,634.0,512.0,223.0,0,0.757,833.6,70.8,17
4012790,32102876723,662.0,548.0,259.0,0,0.782,833.6,70.8,17
4012791,32102884723,681.0,581.0,293.0,0,0.799,833.6,70.8,17
4012792,32102892723,692.0,608.0,325.0,0,0.81,833.6,70.8,17
4012793,32102900723,697.0,629.0,352.0,0,0.801,833.6,70.8,17
4012794,32102908723,696.0,645.0,376.0,0,0.796,833.6,70.8,17
4012795,32102916723,681.0,654.0,395.0,0,0.774,833.6,70.8,17
4012796,32102924723,667.0,657.0,408.0,0,0.74,833.6,70.8,17
4012797,32102932724,649.0,655.0,416.0,0,0.708,833.6,70.8,17
4012798,32102940724,624.0,648.0,419.0,0,0.676,833.6,70.8,17
4012799,32102948724,594.0,635.0,416.0,1,0.673,833.6,70.8,17
4012800,32102956723,564.0,618.0,409.0,0,0.693,833.6,70.8,17
4012801,32102964723,536.0,598.0,397.0,0,0.719,833.6,70.8,17
4012802,32102972726,508.0,576.0,382.0,0,0.729,833.6,70.8,17
4012803,32102980723,473.0,551.0,364.0,0,0.736,833.6,70.8,17
4012804,32102988724,440.0,524.0,342.0,0,0.744,833.6,70.8,17
4012805,32102996723,407.0,496.0,318.0,0,0.737,833.6,70.8,17
4012806,32103004723,371.0,465.0,292.0,0,0.726,833.6,70.8,17
4012807,32103012723,336.0,434.0,264.0,0,0.712,833.6,70.8,17
4012808,32103020723,304.0,403.0,235.0,0,0.689,833.6,70.8,17
4012809,32103028723,272.0,371.0,204.0,0,0.668,833.6,70.8,17
4012810,32103036723,236.0,338.0,173.0,0,0.637,833.6,70.8,17
4012811,32103044723,205.0,306.0,142.0,0,0.606,833.6,70.8,17
4012812,32103052723,180.0,275.0,110.0,0,0.579,833.6,70.8,17
4012813,32103060724,156.0,246.0,80.0,0,0.541,833.6,70.8,17
4012814,32103068723,134.0,219.0,50.0,0,0.514,833.6,70.8,17
4012815,32103076724,114.0,194.0,22.0,0,0.481,833.6,70.8,17
4012816,32103084723,102.0,171.0,-5.0,0,0.497,833.6,70.8,17
4012817,32103092728,89.0,151.0,-29.0,0,0.503,833.6,70.8,17
4012818,32103100723,75.0,133.0,-52.0,0,0.518,833.6,70.8,17
4012819,32103108726,71.0,118.0,-72.0,0,0.519,833.6,70.8,17
4012820,32103116727,61.0,104.0,-90.0,0,0.524,833.6,70.8,17
4012821,32103124727,60.0,93.0,-106.0,0,0.527,833.6,70.8,17
4012822,32103132727,60.0,85.0,-119.0,0,0.519,833.6,70.8,17
4012823,32103140723,55.0,78.0,-130.0,0,0.516,833.6,70.8,17
4012824,32103148723,52.0,72.0,-140.0,0,0.518,833.6,70.8,17
4012825,32103156724,55.0,68.0,-148.0,0,0.512,833.6,70.8,17
4012826,32103164723,57.0,65.0,-153.0,0,0.496,833.6,70.8,17
4012827,32103172726,54.0,62.0,-158.0,0,0.5,833.6,70.8,17
4012828,32103180723,54.0,60.0,-162.0,0,0.497,833.6,70.8,17
4012829,32103188723,54.0,59.0,-164.0,0,0.486,833.6,70.8,17
4012830,32103196725,52.0,57.0,-166.0,0,0.487,833.6,70.8,17
4012831,32103204725,52.0,56.0,-168.0,0,0.488,833.6,70.8,17
4012832,32103212723,50.0,54.0,-169.0,0,0.482,833.6,70.8,17
4012833,32103220726,48.0,53.0,-170.0,0,0.482,833.6,70.8,17
4012834,32103228724,49.0,52.0,-171.0,0,0.481,833.6,70.8,17
4012835,32103236723,47.0,51.0,-171.0,1,0.474,833.6,70.8,17
4012836,32103244724,47.0,50.0,-171.0,0,0.473,833.6,70.8,17
4012837,32103252723,44.0,48.0,-172.0,0,0.479,833.6,70.8,17
4012838,32103260724,44.0,47.0,-172.0,1,0.472,833.6,70.8,17
4012839,32103268723,44.0,47.0,-172.0,0,0.471,833.6,70.8,17
4012840,32103276722,46.0,46.0,-171.0,0,0.475,833.6,70.8,17
4012841,32103284726,44.0,46.0,-171.0,1,0.468,833.6,70.8,17
4012842,32103292723,47.0,46.0,-170.0,0,0.472,833.6,70.8,17
4012843,32103300726,44.0,46.0,-170.0,1,0.465,833.6,70.8,17
4012844,32103308725,43.0,45.0,-169.0,0,0.47,833.6,70.8,17
4012845,32103316726,44.0,45.0,-169.0,1,0.463,833.6,70.8,17
4012846,32103324723,44.0,45.0,-168.0,0,0.468,833.6,70.8,17
4012847,32103332725,47.0,45.0,-167.0,0,0.466,833.6,70.8,17
4012848,32103340723,48.0,46.0,-166.0,0,0.465,833.6,70.8,17
4012849,32103348723,53.0,48.0,-164.0,0,0.469,833.6,70.8,17
4012850,32103356723,52.0,49.0,-162.0,0,0.467,833.6,70.8,17
4012851,32103364724,59.0,51.0,-160.0,0,0.465,833.6,70.8,17
4012852,32103372723,61.0,54.0,-157.0,0,0.468,833.6,70.8,17
4012853,32103380726,68.0,57.0,-154.0,0,0.465,833.6,70.8,17
4012854,32103388723,68.0,60.0,-151.0,0,0.462,833.6,70.8,17
4012855,32103396724,74.0,63.0,-147.0,0,0.465,833.6,70.8,17
4012856,32103404723,75.0,66.0,-143.0,0,0.461,833.6,70.8,17
4012857,32103412724,80.0,69.0,-140.0,0,0.451,833.6,70.8,17
4012858,32103420723,81.0,72.0,-136.0,0,0.454,833.6,70.8,17
4012859,32103428725,90.0,77.0,-132.0,0,0.45,833.6,70.8,17
4012860,32103436723,94.0,81.0,-127.0,0,0.452,833.6,70.8,17
4012861,32103444723,92.0,83.0,-123.0,0,0.441,833.6,70.8,17
4012862,32103452723,104.0,88.0,-119.0,0,0.438,833.6,70.8,17
4012863,32103460723,102.0,92.0,-114.0,0,0.44,833.6,70.8,17
4012864,32103468724,109.0,96.0,-110.0,0,0.429,833.6,70.8,17
4012865,32103476723,118.0,101.0,-105.0,0,0.431,833.6,70.8,17
4012866,32103484725,118.0,105.0,-100.0,0,0.426,833.6,70.8,17
4012867,32103492723,125.0,110.0,-95.0,0,0.421,833.6,70.8,17
4012868,32103500723,134.0,116.0,-90.0,0,0.417,833.6,70.8,17
4012869,32103508725,140.0,122.0,-84.0,0,0.418,833.6,70.8,17
4012870,32103516723,152.0,129.0,-78.0,0,0.412,833.6,70.8,17
4012871,32103524723,173.0,140.0,-70.0,0,0.419,833.6,70.8,17
4012872,32103532722,202.0,155.0,-60.0,0,0.423,833.6,70.8,17
4012873,32103540726,231.0,173.0,-48.0,0,0.426,833.6,70.8,17
4012874,32103548723,272.0,197.0,-32.0,0,0.439,833.6,70.8,17
4012875,32103556724,311.0,225.0,-13.0,0,0.442,833.6,70.8,17
4012876,32103564723,358.0,257.0,9.0,0,0.48,833.6,70.8,17
4012877,32103572723,404.0,293.0,35.0,0,0.526,833.6,70.8,17
4012878,32103580723,449.0,331.0,65.0,0,0.575,833.6,70.8,17
4012879,32103588722,494.0,370.0,97.0,0,0.615,833.6,70.8,17
4012880,32103596727,533.0,410.0,130.0,0,0.653,833.6,70.8,17
4012881,32103604722,569.0,448.0,165.0,0,0.695,833.6,70.8,17
4012882,32103612727,596.0,484.0,199.0,0,0.723,833.6,70.8,17
4012883,32103620725,619.0,517.0,233.0,0,0.753,833.6,70.8,17
4012884,32103628727,639.0,546.0,264.0,0,0.765,833.6,70.8,17
4012885,32103636727,648.0,571.0,293.0,0,0.776,833.6,70.8,17
4012886,32103644723,648.0,590.0,318.0,0,0.771,833.6,70.8,17
4012887,32103652727,647.0,604.0,340.0,0,0.766,833.6,70.8,17
4012888,32103660722,635.0,611.0,356.0,0,0.737,833.6,70.8,17
4012889,32103668723,619.0,613.0,368.0,0,0.715,833.6,70.8,17
4012890,32103676723,598.0,609.0,374.0,0,0.676,833.6,70.8,17
4012891,32103684723,577.0,602.0,376.0,0,0.65,833.6,70.8,17
4012892,32103692723,551.0,589.0,373.0,1,0.653,833.6,70.8,17
4012893,32103700723,530.0,575.0,366.0,0,0.673,833.6,70.8,17
4012894,32103708724,503.0,557.0,356.0,0,0.686,833.6,70.8,17
4012895,32103716723,472.0,537.0,342.0,0,0.702,833.6,70.8,17
4012896,32103724723,436.0,512.0,324.0,0,0.714,833.6,70.8,17
4012897,32103732722,407.0,487.0,304.0,0,0.71,833.6,70.8,17
4012898,32103740723,373.0,459.0,281.0,0,0.708,833.6,70.8,17
4012899,32103748723,342.0,431.0,256.0,0,0.696,833.6,70.8,17
4012900,32103756723,308.0,401.0,230.0,0,0.676,833.6,70.8,17
4012901,32103764723,278.0,371.0,202.0,0,0.658,833.6,70.8,17
4012902,32103772724,244.0,340.0,173.0,0,0.633,833.6,70.8,17
4012903,32103780725,215.0,310.0,144.0,0,0.603,833.6,70.8,17
4012904,32103788727,188.0,280.0,114.0,0,0.577,833.6,70.8,17
4012905,32103796726,163.0,252.0,85.0,0,0.543,833.6,70.8,17
4012906,32103804723,147.0,227.0,57.0,0,0.511,833.6,70.8,17
4012907,32103812723,125.0,202.0,30.0,0,0.482,833.6,70.8,17
4012908,32103820727,112.0,180.0,4.0,0,0.487,833.6,70.8,17
4012909,32103828726,103.0,161.0,-19.0,0,0.492,833.6,70.8,17
4012910,32103836727,92.0,145.0,-40.0,0,0.5,833.6,70.8,17
4012911,32103844723,86.0,130.0,-59.0,0,0.506,833.6,70.8,17
4012912,32103852725,81.0,118.0,-76.0,0,0.51,833.6,70.8,17
4012913,32103860724,80.0,109.0,-91.0,0,0.512,833.6,70.8,17
4012914,32103868723,83.0,103.0,-103.0,0,0.505,833.6,70.8,17
4012915,32103876725,81.0,97.0,-112.0,0,0.493,833.6,70.8,17
4012916,32103884723,78.0,93.0,-120.0,0,0.494,833.6,70.8,17
4012917,32103892723,84.0,91.0,-126.0,0,0.486,833.6,70.8,17
4012918,32103900723,84.0,89.0,-131.0,0,0.484,833.6,70.8,17
4012919,32103908725,89.0,89.0,-134.0,0,0.473,833.6,70.8,17
4012920,32103916723,84.0,88.0,-136.0,0,0.468,833.6,70.8,17
4012921,32103924723,92.0,89.0,-137.0,0,0.462,833.6,70.8,17
4012922,32103932725,94.0,90.0,-137.0,1,0.454,833.6,70.8,17
4012923,32103940723,90.0,90.0,-137.0,0,0.454,833.6,70.8,17
4012924,32103948723,90.0,90.0,-137.0,0,0.453,833.6,70.8,17
4012925,32103956723,89.0,90.0,-136.0,0,0.457,833.6,70.8,17
4012926,32103964723,84.0,88.0,-136.0,1,0.45,833.6,70.8,17
4012927,32103972726,84.0,87.0,-136.0,0,0.449,833.6,70.8,17
4012928,32103980725,79.0,85.0,-136.0,0,0.448,833.6,70.8,17
4012929,32103988727,80.0,84.0,-136.0,0,0.447,833.6,70.8,17
4012930,32103996723,77.0,82.0,-137.0,0,0.453,833.6,70.8,17
4012931,32104004723,76.0,81.0,-137.0,1,0.446,833.6,70.8,17
4012932,32104012724,70.0,78.0,-138.0,0,0.452,833.6,70.8,17
4012933,32104020723,66.0,75.0,-139.0,0,0.453,833.6,70.8,17
4012934,32104028723,67.0,73.0,-140.0,0,0.453,833.6,70.8,17
4012935,32104036726,65.0,71.0,-142.0,0,0.46,833.6,70.8,17
4012936,32104044723,63.0,69.0,-143.0,0,0.454,833.6,70.8,17
4012937,32104052726,64.0,68.0,-144.0,0,0.454,833.6,70.8,17
4012938,32104060723,65.0,67.0,-144.0,1,0.447,833.6,70.8,17
4012939,32104068723,67.0,67.0,-144.0,0,0.446,833.6,70.8,17
4012940,32104076723,64.0,66.0,-144.0,0,0.445,833.6,70.8,17
4012941,32104084728,64.0,66.0,-144.0,0,0.444,833.6,70.8,17
4012942,32104092723,70.0,67.0,-144.0,0,0.444,833.6,70.8,17
4012943,32104100724,72.0,68.0,-142.0,0,0.454,833.6,70.8,17
4012944,32104108726,71.0,69.0,-141.0,0,0.446,833.6,70.8,17
4012945,32104116725,76.0,71.0,-140.0,0,0.444,833.6,70.8,17
4012946,32104124723,76.0,72.0,-138.0,0,0.448,833.6,70.8,17
4012947,32104132723,80.0,74.0,-136.0,0,0.446,833.6,70.8,17
4012948,32104140724,83.0,76.0,-133.0,0,0.45,833.6,70.8,17
4012949,32104148724,84.0,78.0,-131.0,0,0.44,833.6,70.8,17
4012950,32104156727,91.0,81.0,-128.0,0,0.444,833.6,70.8,17
4012951,32104164723,95.0,84.0,-125.0,0,0.441,833.6,70.8,17
4012952,32104172723,96.0,87.0,-121.0,0,0.444,833.6,70.8,17
4012953,32104180723,100.0,90.0,-118.0,0,0.433,833.6,70.8,17
4012954,32104188723,101.0,93.0,-114.0,0,0.436,833.6,70.8,17
4012955,32104196724,108.0,97.0,-111.0,0,0.426,833.6,70.8,17
4012956,32104204723,114.0,101.0,-107.0,0,0.429,833.6,70.8,17
4012957,32104212724,117.0,105.0,-103.0,0,0.425,833.6,70.8,17
4012958,32104220724,122.0,109.0,-98.0,0,0.427,833.6,70.8,17
4012959,32104228723,124.0,113.0,-94.0,0,0.416,833.6,70.8,17
4012960,32104236726,140.0,119.0,-89.0,0,0.418,833.6,70.8,17
4012961,32104244726,149.0,126.0,-83.0,0,0.419,833.6,70.8,17
4012962,32104252726,172.0,137.0,-76.0,0,0.42,833.6,70.8,17
4012963,32104260723,195.0,151.0,-66.0,0,0.432,833.6,70.8,17
4012964,32104268725,228.0,170.0,-54.0,0,0.435,833.6,70.8,17
4012965,32104276723,268.0,194.0,-39.0,0,0.442,833.6,70.8,17
4012966,32104284723,313.0,223.0,-20.0,0,0.451,833.6,70.8,17
4012967,32104292724,364.0,257.0,4.0,0,0.497,833.6,70.8,17
4012968,32104300723,412.0,295.0,31.0,0,0.54,833.6,70.8,17
4012969,32104308723,460.0,335.0,62.0,0,0.59,833.6,70.8,17
4012970,32104316725,509.0,377.0,95.0,0,0.633,833.6,70.8,17
4012971,32104324725,556.0,420.0,131.0,0,0.682,833.6,70.8,17
4012972,32104332723,595.0,463.0,169.0,0,0.728,833.6,70.8,17
4012973,32104340724,628.0,503.0,206.0,0,0.76,833.6,70.8,17
4012974,32104348726,656.0,540.0,243.0,0,0.792,833.6,70.8,17
4012975,32104356722,677.0,573.0,278.0,0,0.811,833.6,70.8,17
4012976,32104364726,692.0,602.0,311.0,0,0.825,833.6,70.8,17
4012977,32104372723,702.0,626.0,340.0,0,0.823,833.6,70.8,17
4012978,32104380726,698.0,644.0,365.0,0,0.814,833.6,70.8,17
4012979,32104388723,696.0,656.0,386.0,0,0.799,833.6,70.8,17
4012980,32104396725,688.0,664.0,402.0,0,0.772,833.6,70.8,17
4012981,32104404723,664.0,664.0,413.0,0,0.741,833.6,70.8,17
4012982,32104412726,650.0,661.0,419.0,0,0.707,833.6,70.8,17
4012983,32104420723,619.0,651.0,419.0,1,0.667,833.6,70.8,17
4012984,32104428723,598.0,638.0,415.0,0,0.689,833.6,70.8,17
4012985,32104436723,568.0,621.0,407.0,0,0.71,833.6,70.8,17
4012986,32104444725,536.0,600.0,394.0,0,0.737,833.6,70.8,17
4012987,32104452723,507.0,578.0,378.0,0,0.747,833.6,70.8,17
4012988,32104460723,470.0,552.0,358.0,0,0.76,833.6,70.8,17
4012989,32104468723,437.0,524.0,336.0,0,0.756,833.6,70.8,17
4012990,32104476727,400.0,494.0,311.0,0,0.753,833.6,70.8,17
4012991,32104484727,364.0,462.0,284.0,0,0.74,833.6,70.8,17
4012992,32104492723,332.0,431.0,255.0,0,0.723,833.6,70.8,17
4012993,32104500723,294.0,398.0,224.0,0,0.702,833.6,70.8,17
4012994,32104508723,263.0,365.0,193.0,0,0.669,833.6,70.8,17
4012995,32104516724,233.0,333.0,162.0,0,0.636,833.6,70.8,17
4012996,32104524726,200.0,301.0,130.0,0,0.606,833.6,70.8,17
4012997,32104532724,176.0,270.0,98.0,0,0.571,833.6,70.8,17
4012998,32104540724,146.0,240.0,67.0,0,0.535,833.6,70.8,17
4012999,32104548722,127.0,213.0,37.0,0,0.502,833.6,70.8,17
4013000,32104556723,112.0,188.0,9.0,0,0.498,833.6,70.8,17
4013001,32104564723,93.0,165.0,-18.0,0,0.518,833.6,70.8,17
4013002,32104572723,77.0,144.0,-43.0,0,0.533,833.6,70.8,17
4013003,32104580728,67.0,125.0,-66.0,0,0.545,833.6,70.8,17
4013004,32104588726,60.0,109.0,-86.0,0,0.548,833.6,70.8,17
4013005,32104596723,52.0,96.0,-105.0,0,0.561,833.6,70.8,17
4013006,32104604723,49.0,84.0,-121.0,0,0.559,833.6,70.8,17
4013007,32104612723,44.0,74.0,-135.0,0,0.56,833.6,70.8,17
4013008,32104620723,44.0,67.0,-146.0,0,0.551,833.6,70.8,17
4013009,32104628723,40.0,61.0,-156.0,0,0.554,833.6,70.8,17
4013010,32104636723,41.0,56.0,-164.0,0,0.548,833.6,70.8,17
4013011,32104644723,38.0,51.0,-171.0,0,0.548,833.6,70.8,17
4013012,32104652723,36.0,48.0,-177.0,0,0.546,833.6,70.8,17
4013013,32104660723,39.0,46.0,-181.0,0,0.536,833.6,70.8,17
4013014,32104668723,36.0,43.0,-184.0,0,0.532,833.6,70.8,17
4013015,32104676723,32.0,41.0,-187.0,0,0.534,833.6,70.8,17
4013016,32104684726,32.0,38.0,-189.0,0,0.528,833.6,70.8,17
4013017,32104692726,34.0,37.0,-190.0,0,0.522,833.6,70.8,17
4013018,32104700726,28.0,35.0,-192.0,0,0.529,833.6,70.8,17
4013019,32104708726,25.0,33.0,-193.0,0,0.523,833.6,70.8,17
4013020,32104716724,25.0,31.0,-194.0,0,0.523,833.6,70.8,17
4013021,32104724723,25.0,29.0,-195.0,0,0.523,833.6,70.8,17
4013022,32104732723,20.0,27.0,-196.0,0,0.523,833.6,70.8,17
4013023,32104740723,20.0,25.0,-196.0,1,0.516,833.6,70.8,17
4013024,32104748723,17.0,23.0,-197.0,0,0.522,833.6,70.8,17
4013025,32104756726,17.0,22.0,-198.0,0,0.522,833.6,70.8,17
4013026,32104764728,13.0,20.0,-198.0,1,0.515,833.6,70.8,17
4013027,32104772723,16.0,19.0,-199.0,0,0.521,833.6,70.8,17
4013028,32104780723,13.0,17.0,-199.0,1,0.514,833.6,70.8,17
4013029,32104788726,11.0,16.0,-199.0,0,0.513,833.6,70.8,17
4013030,32104796724,16.0,16.0,-199.0,0,0.512,833.6,70.8,17
4013031,32104804724,13.0,15.0,-199.0,0,0.511,833.6,70.8,17
4013032,32104812723,17.0,16.0,-198.0,0,0.515,833.6,70.8,17
4013033,32104820727,18.0,16.0,-197.0,0,0.513,833.6,70.8,17
4013034,32104828723,20.0,17.0,-195.0,0,0.516,833.6,70.8,17
4013035,32104836726,23.0,19.0,-194.0,0,0.507,833.6,70.8,17
4013036,32104844727,26.0,20.0,-192.0,0,0.511,833.6,70.8,17
4013037,32104852723,28.0,22.0,-189.0,0,0.513,833.6,70.8,17
4013038,32104860727,40.0,27.0,-186.0,0,0.509,833.6,70.8,17
4013039,32104868726,45.0,31.0,-182.0,0,0.511,833.6,70.8,17
4013040,32104876727,52.0,36.0,-177.0,0,0.512,833.6,70.8,17
4013041,32104884723,58.0,41.0,-172.0,0,0.507,833.6,70.8,17
4013042,32104892723,64.0,47.0,-167.0,0,0.501,833.6,70.8,17
4013043,32104900726,67.0,52.0,-161.0,0,0.501,833.6,70.8,17
4013044,32104908723,74.0,57.0,-155.0,0,0.494,833.6,70.8,17
4013045,32104916727,81.0,63.0,-149.0,0,0.488,833.6,70.8,17
4013046,32104924723,84.0,68.0,-143.0,0,0.481,833.6,70.8,17
4013047,32104932723,88.0,73.0,-137.0,0,0.475,833.6,70.8,17
4013048,32104940725,92.0,78.0,-132.0,0,0.462,833.6,70.8,17
4013049,32104948723,94.0,82.0,-126.0,0,0.463,833.6,70.8,17
4013050,32104956723,97.0,85.0,-121.0,0,0.45,833.6,70.8,17
4013051,32104964723,100.0,89.0,-116.0,0,0.445,833.6,70.8,17
4013052,32104972723,106.0,93.0,-111.0,0,0.44,833.6,70.8,17
4013053,32104980723,111.0,97.0,-106.0,0,0.435,833.6,70.8,17
4013054,32104988726,132.0,106.0,-100.0,0,0.436,833.6,70.8,17
4013055,32104996723,149.0,116.0,-93.0,0,0.436,833.6,70.8,17
4013056,32105004723,177.0,131.0,-83.0,0,0.448,833.6,70.8,17
4013057,32105012723,212.0,151.0,-70.0,0,0.457,833.6,70.8,17
4013058,32105020723,252.0,175.0,-54.0,0,0.463,833.6,70.8,17
4013059,32105028726,301.0,206.0,-34.0,0,0.47,833.6,70.8,17
4013060,32105036722,351.0,241.0,-10.0,0,0.485,833.6,70.8,17
4013061,32105044728,404.0,280.0,19.0,0,0.538,833.6,70.8,17
4013062,32105052723,458.0,323.0,51.0,0,0.583,833.6,70.8,17
4013063,32105060723,503.0,367.0,86.0,0,0.631,833.6,70.8,17
4013064,32105068723,551.0,412.0,124.0,0,0.681,833.6,70.8,17
4013065,32105076724,588.0,454.0,162.0,0,0.72,833.6,70.8,17
4013066,32105084723,618.0,494.0,201.0,0,0.76,833.6,70.8,17
4013067,32105092723,652.0,532.0,238.0,0,0.786,833.6,70.8,17
4013068,32105100723,672.0,566.0,274.0,0,0.81,833.6,70.8,17
4013069,32105108726,684.0,595.0,307.0,0,0.821,833.6,70.8,17
4013070,32105116723,692.0,618.0,337.0,0,0.824,833.6,70.8,17
4013071,32105124723,692.0,636.0,362.0,0,0.811,833.6,70.8,17
4013072,32105132723,688.0,649.0,383.0,0,0.797,833.6,70.8,17
4013073,32105140726,675.0,655.0,399.0,0,0.77,833.6,70.8,17
4013074,32105148723,659.0,656.0,410.0,0,0.739,833.6,70.8,17
4013075,32105156726,635.0,651.0,415.0,0,0.698,833.6,70.8,17
4013076,32105164726,609.0,641.0,416.0,0,0.671,833.6,70.8,17
4013077,32105172728,581.0,626.0,411.0,1,0.693,833.6,70.8,17
4013078,32105180723,556.0,609.0,402.0,0,0.714,833.6,70.8,17
4013079,32105188724,525.0,589.0,389.0,0,0.734,833.6,70.8,17
4013080,32105196723,492.0,565.0,372.0,0,0.75,833.6,70.8,17
4013081,32105204723,463.0,541.0,353.0,0,0.749,833.6,70.8,17
4013082,32105212726,429.0,513.0,331.0,0,0.752,833.6,70.8,17
4013083,32105220723,391.0,484.0,306.0,0,0.749,833.6,70.8,17
4013084,32105228723,361.0,454.0,279.0,0,0.736,833.6,70.8,17
4013085,32105236727,330.0,424.0,251.0,0,0.715,833.6,70.8,17
4013086,32105244726,293.0,392.0,222.0,0,0.691,833.6,70.8,17
4013087,32105252724,263.0,361.0,192.0,0,0.664,833.6,70.8,17
4013088,32105260723,227.0,328.0,161.0,0,0.636,833.6,70.8,17
4013089,32105268723,203.0,298.0,130.0,0,0.602,833.6,70.8,17
4013090,32105276726,176.0,268.0,99.0,0,0.569,833.6,70.8,17
4013091,32105284723,156.0,241.0,70.0,0,0.531,833.6,70.8,17
4013092,32105292724,134.0,215.0,41.0,0,0.503,833.6,70.8,17
4013093,32105300724,119.0,192.0,14.0,0,0.487,833.6,70.8,17
4013094,32105308723,108.0,172.0,-11.0,0,0.499,833.6,70.8,17
4013095,32105316723,93.0,153.0,-34.0,0,0.511,833.6,70.8,17
4013096,32105324726,86.0,136.0,-55.0,0,0.52,833.6,70.8,17
4013097,32105332723,82.0,123.0,-73.0,0,0.52,833.6,70.8,17
4013098,32105340723,74.0,111.0,-89.0,0,0.524,833.6,70.8,17
4013099,32105348723,68.0,101.0,-104.0,0,0.532,833.6,70.8,17
4013100,32105356724,69.0,93.0,-116.0,0,0.525,833.6,70.8,17
4013101,32105364723,64.0,86.0,-126.0,0,0.522,833.6,70.8,17
4013102,32105372724,65.0,81.0,-135.0,0,0.524,833.6,70.8,17
4013103,32105380726,62.0,76.0,-142.0,0,0.518,833.6,70.8,17
4013104,32105388723,62.0,73.0,-148.0,0,0.517,833.6,70.8,17
4013105,32105396723,60.0,70.0,-153.0,0,0.515,833.6,70.8,17
4013106,32105404723,59.0,67.0,-156.0,0,0.505,833.6,70.8,17
4013107,32105412724,57.0,65.0,-160.0,0,0.514,833.6,70.8,17
4013108,32105420723,54.0,62.0,-162.0,0,0.503,833.6,70.8,17
4013109,32105428726,56.0,61.0,-164.0,0,0.504,833.6,70.8,17
4013110,32105436724,53.0,59.0,-166.0,0,0.505,833.6,70.8,17
4013111,32105444727,51.0,57.0,-167.0,0,0.498,833.6,70.8,17
4013112,32105452723,47.0,54.0,-168.0,0,0.498,833.6,70.8,17
4013113,32105460725,44.0,52.0,-170.0,0,0.505,833.6,70.8,17
4013114,32105468726,42.0,50.0,-171.0,0,0.499,833.6,70.8,17
4013115,32105476726,42.0,48.0,-172.0,0,0.499,833.6,70.8,17
4013116,32105484723,35.0,45.0,-174.0,0,0.506,833.6,70.8,17
4013117,32105492724,36.0,43.0,-175.0,0,0.5,833.6,70.8,17
4013118,32105500728,28.0,39.0,-176.0,0,0.5,833.6,70.8,17
4013119,32105508723,24.0,35.0,-178.0,0,0.508,833.6,70.8,17
4013120,32105516723,30.0,34.0,-180.0,0,0.509,833.6,70.8,17
4013121,32105524728,25.0,32.0,-181.0,0,0.503,833.6,70.8,17
4013122,32105532723,21.0,29.0,-182.0,0,0.503,833.6,70.8,17
4013123,32105540723,23.0,28.0,-183.0,0,0.503,833.6,70.8,17
4013124,32105548723,22.0,26.0,-184.0,0,0.503,833.6,70.8,17
4013125,32105556727,17.0,24.0,-185.0,0,0.503,833.6,70.8,17
4013126,32105564723,20.0,23.0,-185.0,1,0.496,833.6,70.8,17
4013127,32105572723,19.0,22.0,-185.0,0,0.495,833.6,70.8,17
4013128,32105580723,24.0,23.0,-185.0,0,0.494,833.6,70.8,17
4013129,32105588723,30.0,24.0,-184.0,0,0.498,833.6,70.8,17
4013130,32105596726,30.0,26.0,-183.0,0,0.496,833.6,70.8,17
4013131,32105604724,37.0,28.0,-180.0,0,0.504,833.6,70.8,17
4013132,32105612723,41.0,32.0,-178.0,0,0.495,833.6,70.8,17
4013133,32105620727,46.0,35.0,-174.0,0,0.503,833.6,70.8,17
4013134,32105628723,52.0,39.0,-170.0,0,0.498,833.6,70.8,17
4013135,32105636723,57.0,43.0,-166.0,0,0.493,833.6,70.8,17
4013136,32105644725,60.0,47.0,-162.0,0,0.488,833.6,70.8,17
4013137,32105652727,68.0,52.0,-157.0,0,0.489,833.6,70.8,17
4013138,32105660723,79.0,59.0,-151.0,0,0.489,833.6,70.8,17
4013139,32105668726,83.0,65.0,-145.0,0,0.482,833.6,70.8,17
4013140,32105676726,88.0,70.0,-139.0,0,0.476,833.6,70.8,17
4013141,32105684723,93.0,76.0,-133.0,0,0.469,833.6,70.8,17
4013142,32105692726,101.0,82.0,-127.0,0,0.462,833.6,70.8,17
4013143,32105700724,107.0,88.0,-120.0,0,0.462,833.6,70.8,17
4013144,32105708724,111.0,94.0,-114.0,0,0.448,833.6,70.8,17
4013145,32105716723,123.0,101.0,-107.0,0,0.448,833.6,70.8,17
4013146,32105724723,133.0,109.0,-100.0,0,0.441,833.6,70.8,17
4013147,32105732728,150.0,119.0,-92.0,0,0.44,833.6,70.8,17
4013148,32105740724,172.0,132.0,-82.0,0,0.445,833.6,70.8,17
4013149,32105748723,204.0,149.0,-70.0,0,0.447,833.6,70.8,17
4013150,32105756723,241.0,171.0,-55.0,0,0.454,833.6,70.8,17
4013151,32105764723,287.0,199.0,-37.0,0,0.458,833.6,70.8,17
4013152,32105772723,334.0,232.0,-14.0,0,0.477,833.6,70.8,17
4013153,32105780723,383.0,269.0,13.0,0,0.524,833.6,70.8,17
4013154,32105788723,437.0,309.0,43.0,0,0.568,833.6,70.8,17
4013155,32105796723,483.0,352.0,76.0,0,0.615,833.6,70.8,17
4013156,32105804723,534.0,396.0,112.0,0,0.663,833.6,70.8,17
4013157,32105812723,572.0,438.0,150.0,0,0.709,833.6,70.8,17
4013158,32105820723,607.0,479.0,188.0,0,0.746,833.6,70.8,17
4013159,32105828724,639.0,518.0,225.0,0,0.776,833.6,70.8,17
4013160,32105836723,662.0,553.0,261.0,0,0.801,833.6,70.8,17
4013161,32105844723,684.0,585.0,296.0,0,0.821,833.6,70.8,17
4013162,32105852723,689.0,610.0,326.0,0,0.818,833.6,70.8,17
4013163,32105860723,692.0,630.0,353.0,0,0.817,833.6,70.8,17
4013164,32105868723,690.0,644.0,376.0,0,0.805,833.6,70.8,17
4013165,32105876726,681.0,653.0,394.0,0,0.781,833.6,70.8,17
4013166,32105884723,662.0,655.0,406.0,0,0.744,833.6,70.8,17
4013167,32105892727,645.0,653.0,414.0,0,0.718,833.6,70.8,17
4013168,32105900723,621.0,645.0,416.0,0,0.677,833.6,70.8,17
4013169,32105908727,598.0,634.0,413.0,1,0.681,833.6,70.8,17
4013170,32105916722,570.0,618.0,407.0,0,0.696,833.6,70.8,17
4013171,32105924724,538.0,599.0,395.0,0,0.73,833.6,70.8,17
4013172,32105932723,506.0,576.0,380.0,0,0.741,833.6,70.8,17
4013173,32105940723,472.0,551.0,362.0,0,0.749,833.6,70.8,17
4013174,32105948728,439.0,524.0,340.0,0,0.758,833.6,70.8,17
4013175,32105956724,402.0,494.0,316.0,0,0.751,833.6,70.8,17
4013176,32105964724,367.0,463.0,289.0,0,0.745,833.6,70.8,17
4013177,32105972724,336.0,433.0,261.0,0,0.724,833.6,70.8,17
4013178,32105980723,294.0,399.0,231.0,0,0.705,833.6,70.8,17
4013179,32105988723,265.0,366.0,200.0,0,0.678,833.6,70.8,17
4013180,32105996723,232.0,334.0,168.0,0,0.648,833.6,70.8,17
4013181,32106004726,202.0,302.0,136.0,0,0.614,833.6,70.8,17
4013182,32106012723,179.0,272.0,105.0,0,0.577,833.6,70.8,17
4013183,32106020723,152.0,243.0,74.0,0,0.545,833.6,70.8,17
4013184,32106028723,132.0,216.0,45.0,0,0.508,833.6,70.8,17
4013185,32106036725,113.0,191.0,17.0,0,0.487,833.6,70.8,17
4013186,32106044723,95.0,168.0,-10.0,0,0.506,833.6,70.8,17
4013187,32106052723,82.0,147.0,-35.0,0,0.519,833.6,70.8,17
4013188,32106060723,73.0,129.0,-57.0,0,0.524,833.6,70.8,17
4013189,32106068723,65.0,114.0,-77.0,0,0.533,833.6,70.8,17
4013190,32106076727,57.0,100.0,-96.0,0,0.546,833.6,70.8,17
4013191,32106084723,52.0,88.0,-112.0,0,0.543,833.6,70.8,17
4013192,32106092723,54.0,80.0,-125.0,0,0.537,833.6,70.8,17
4013193,32106100724,48.0,72.0,-137.0,0,0.543,833.6,70.8,17
4013194,32106108727,48.0,66.0,-146.0,0,0.532,833.6,70.8,17
4013195,32106116726,49.0,62.0,-154.0,0,0.533,833.6,70.8,17
4013196,32106124723,48.0,59.0,-160.0,0,0.526,833.6,70.8,17
4013197,32106132723,45.0,55.0,-165.0,0,0.524,833.6,70.8,17
4013198,32106140723,47.0,53.0,-169.0,0,0.521,833.6,70.8,17
4013199,32106148723,46.0,52.0,-172.0,0,0.517,833.6,70.8,17
4013200,32106156723,48.0,51.0,-174.0,0,0.511,833.6,70.8,17
4013201,32106164722,45.0,49.0,-175.0,0,0.505,833.6,70.8,17
4013202,32106172723,47.0,49.0,-176.0,0,0.505,833.6,70.8,17
4013203,32106180723,40.0,47.0,-177.0,0,0.505,833.6,70.8,17
4013204,32106188723,43.0,46.0,-178.0,0,0.505,833.6,70.8,17
4013205,32106196726,42.0,45.0,-178.0,1,0.498,833.6,70.8,17
4013206,32106204724,39.0,43.0,-178.0,0,0.497,833.6,70.8,17
4013207,32106212723,36.0,42.0,-179.0,0,0.503,833.6,70.8,17
4013208,32106220723,32.0,39.0,-179.0,1,0.495,833.6,70.8,17
4013209,32106228727,30.0,37.0,-180.0,0,0.501,833.6,70.8,17
4013210,32106236727,32.0,36.0,-180.0,1,0.494,833.6,70.8,17
4013211,32106244726,30.0,34.0,-181.0,0,0.5,833.6,70.8,17
4013212,32106252726,26.0,32.0,-181.0,1,0.493,833.6,70.8,17
4013213,32106260725,28.0,31.0,-182.0,0,0.499,833.6,70.8,17
4013214,32106268724,25.0,30.0,-182.0,1,0.492,833.6,70.8,17
4013215,32106276723,29.0,30.0,-182.0,0,0.491,833.6,70.8,17
4013216,32106284723,28.0,29.0,-182.0,0,0.49,833.6,70.8,17
4013217,32106292723,32.0,30.0,-181.0,0,0.494,833.6,70.8,17
4013218,32106300723,33.0,31.0,-180.0,0,0.492,833.6,70.8,17
4013219,32106308722,34.0,31.0,-179.0,0,0.49,833.6,70.8,17
4013220,32106316723,36.0,33.0,-177.0,0,0.493,833.6,70.8,17
4013221,32106324724,43.0,35.0,-175.0,0,0.49,833.6,70.8,17
4013222,32106332724,46.0,38.0,-172.0,0,0.492,833.6,70.8,17
4013223,32106340723,50.0,41.0,-169.0,0,0.488,833.6,70.8,17
4013224,32106348725,52.0,43.0,-166.0,0,0.484,833.6,70.8,17
4013225,32106356723,59.0,47.0,-162.0,0,0.486,833.6,70.8,17
4013226,32106364723,64.0,51.0,-158.0,0,0.481,833.6,70.8,17
4013227,32106372725,71.0,56.0,-154.0,0,0.476,833.6,70.8,17
4013228,32106380725,77.0,61.0,-149.0,0,0.477,833.6,70.8,17
4013229,32106388724,77.0,65.0,-144.0,0,0.471,833.6,70.8,17
4013230,32106396723,84.0,70.0,-139.0,0,0.465,833.6,70.8,17
4013231,32106404727,83.0,73.0,-134.0,0,0.46,833.6,70.8,17
4013232,32106412723,90.0,77.0,-129.0,0,0.454,833.6,70.8,17
4013233,32106420725,93.0,81.0,-124.0,0,0.449,833.6,70.8,17
4013234,32106428727,98.0,85.0,-120.0,0,0.438,833.6,70.8,17
4013235,32106436726,103.0,89.0,-115.0,0,0.439,833.6,70.8,17
4013236,32106444726,116.0,96.0,-109.0,0,0.44,833.6,70.8,17
4013237,32106452723,127.0,103.0,-103.0,0,0.434,833.6,70.8,17
4013238,32106460723,150.0,115.0,-95.0,0,0.44,833.6,70.8,17
4013239,32106468723,176.0,130.0,-85.0,0,0.444,833.6,70.8,17
4013240,32106476723,207.0,148.0,-73.0,0,0.446,833.6,70.8,17
4013241,32106484725,247.0,172.0,-57.0,0,0.459,833.6,70.8,17
4013242,32106492723,298.0,203.0,-37.0,0,0.466,833.6,70.8,17
4013243,32106500726,348.0,238.0,-12.0,0,0.485,833.6,70.8,17
4013244,32106508728,402.0,278.0,16.0,0,0.526,833.6,70.8,17
4013245,32106516724,454.0,320.0,48.0,0,0.575,833.6,70.8,17
4013246,32106524723,504.0,365.0,84.0,0,0.626,833.6,70.8,17
4013247,32106532723,556.0,411.0,122.0,0,0.672,833.6,70.8,17
4013248,32106540723,597.0,456.0,162.0,0,0.717,833.6,70.8,17
4013249,32106548725,633.0,499.0,202.0,0,0.755,833.6,70.8,17
4013250,32106556728,665.0,539.0,241.0,0,0.785,833.6,70.8,17
4013251,32106564726,692.0,576.0,279.0,0,0.81,833.6,70.8,17
4013252,32106572723,708.0,608.0,315.0,0,0.826,833.6,70.8,17
4013253,32106580726,720.0,635.0,347.0,0,0.827,833.6,70.8,17
4013254,32106588723,724.0,657.0,375.0,0,0.822,833.6,70.8,17
4013255,32106596727,718.0,672.0,399.0,0,0.81,833.6,70.8,17
4013256,32106604723,705.0,680.0,417.0,0,0.78,833.6,70.8,17
4013257,32106612726,688.0,682.0,430.0,0,0.751,833.6,70.8,17
4013258,32106620723,668.0,678.0,437.0,0,0.712,833.6,70.8,17
4013259,32106628723,639.0,669.0,439.0,0,0.679,833.6,70.8,17
4013260,32106636723,617.0,656.0,435.0,1,0.688,833.6,70.8,17
4013261,32106644723,586.0,639.0,428.0,0,0.703,833.6,70.8,17
4013262,32106652723,558.0,620.0,415.0,0,0.735,833.6,70.8,17
4013263,32106660723,522.0,596.0,399.0,0,0.746,833.6,70.8,17
4013264,32106668724,484.0,569.0,380.0,0,0.753,833.6,70.8,17
4013265,32106676723,452.0,540.0,357.0,0,0.761,833.6,70.8,17
4013266,32106684723,411.0,509.0,331.0,0,0.758,833.6,70.8,17
4013267,32106692723,373.0,476.0,303.0,0,0.746,833.6,70.8,17
4013268,32106700723,336.0,442.0,272.0,0,0.734,833.6,70.8,17
4013269,32106708723,302.0,408.0,241.0,0,0.705,833.6,70.8,17
4013270,32106716728,265.0,373.0,208.0,0,0.681,833.6,70.8,17
4013271,32106724726,232.0,339.0,175.0,0,0.648,833.6,70.8,17
4013272,32106732724,203.0,306.0,141.0,0,0.617,833.6,70.8,17
4013273,32106740723,174.0,274.0,108.0,0,0.58,833.6,70.8,17
4013274,32106748723,148.0,244.0,76.0,0,0.544,833.6,70.8,17
4013275,32106756723,121.0,214.0,44.0,0,0.515,833.6,70.8,17
4013276,32106764726,101.0,186.0,14.0,0,0.493,833.6,70.8,17
4013277,32106772723,84.0,162.0,-14.0,0,0.508,833.6,70.8,17
4013278,32106780727,72.0,140.0,-41.0,0,0.527,833.6,70.8,17
4013279,32106788722,58.0,120.0,-65.0,0,0.534,833.6,70.8,17
4013280,32106796723,52.0,104.0,-87.0,0,0.544,833.6,70.8,17
4013281,32106804723,44.0,89.0,-106.0,0,0.546,833.6,70.8,17
4013282,32106812725,37.0,76.0,-123.0,0,0.55,833.6,70.8,17
4013283,32106820723,34.0,66.0,-138.0,0,0.552,833.6,70.8,17
4013284,32106828724,34.0,58.0,-151.0,0,0.552,833.6,70.8,17
4013285,32106836723,34.0,52.0,-161.0,0,0.542,833.6,70.8,17
4013286,32106844723,28.0,47.0,-170.0,0,0.544,833.6,70.8,17
4013287,32106852726,32.0,43.0,-176.0,0,0.531,833.6,70.8,17
4013288,32106860723,29.0,40.0,-182.0,0,0.536,833.6,70.8,17
4013289,32106868726,29.0,37.0,-186.0,0,0.527,833.6,70.8,17
4013290,32106876726,25.0,34.0,-190.0,0,0.529,833.6,70.8,17
4013291,32106884725,25.0,32.0,-192.0,0,0.519,833.6,70.8,17
4013292,32106892723,28.0,31.0,-194.0,0,0.519,833.6,70.8,17
4013293,32106900727,28.0,30.0,-195.0,0,0.513,833.6,70.8,17
4013294,32106908724,29.0,30.0,-196.0,0,0.513,833.6,70.8,17
4013295,32106916723,25.0,29.0,-196.0,1,0.506,833.6,70.8,17
4013296,32106924723,26.0,28.0,-196.0,0,0.505,825.6,70.8,1
4013297,32106932723,24.0,27.0,-196.0,0,0.504,825.6,70.8,1
4013298,32106940724,28.0,27.0,-196.0,0,0.503,825.6,70.8,1
4013299,32106948723,28.0,27.0,-195.0,0,0.507,825.6,70.8,1
4013300,32106956723,26.0,27.0,-194.0,0,0.505,825.6,70.8,1
4013301,32106964724,26.0,27.0,-193.0,0,0.503,825.6,70.8,1
4013302,32106972723,24.0,26.0,-193.0,1,0.496,825.6,70.8,1
4013303,32106980723,25.0,26.0,-192.0,0,0.5,825.6,70.8,1
4013304,32106988723,25.0,26.0,-191.0,0,0.498,825.6,70.8,1
4013305,32106996723,27.0,26.0,-190.0,0,0.496,825.6,70.8,1
4013306,32107004723,28.0,26.0,-189.0,0,0.494,825.6,70.8,1
4013307,32107012726,28.0,27.0,-187.0,0,0.497,825.6,70.8,1
4013308,32107020723,30.0,28.0,-186.0,0,0.489,825.6,70.8,1
4013309,32107028723,30.0,28.0,-184.0,0,0.492,824.0,70.8,1
4013310,32107036723,32.0,29.0,-182.0,0,0.489,824.0,70.8,1
4013311,32107044723,30.0,29.0,-181.0,0,0.481,824.0,70.8,1
4013312,32107052724,35.0,31.0,-179.0,0,0.484,824.0,70.8,1
4013313,32107060727,37.0,32.0,-177.0,0,0.481,824.0,70.8,1
4013314,32107068723,46.0,36.0,-174.0,0,0.484,824.0,70.8,1
4013315,32107076723,48.0,39.0,-171.0,0,0.48,824.0,70.8,1
4013316,32107084723,54.0,42.0,-167.0,0,0.481,824.0,70.8,1
4013317,32107092723,58.0,46.0,-163.0,0,0.476,824.0,70.8,1
4013318,32107100723,62.0,50.0,-159.0,0,0.471,824.0,70.8,1
4013319,32107108724,64.0,53.0,-155.0,0,0.466,824.0,70.8,1
4013320,32107116727,70.0,57.0,-150.0,0,0.467,824.0,70.8,1
4013321,32107124723,75.0,62.0,-145.0,0,0.462,824.0,70.8,1
4013322,32107132726,81.0,66.0,-141.0,0,0.451,824.0,70.8,1
4013323,32107140723,84.0,71.0,-136.0,0,0.452,824.0,70.8,1
4013324,32107148724,88.0,75.0,-131.0,0,0.447,824.0,70.8,1
4013325,32107156728,94.0,79.0,-126.0,0,0.441,824.0,70.8,1
4013326,32107164723,95.0,83.0,-121.0,0,0.436,824.0,70.8,1
4013327,32107172724,105.0,89.0,-115.0,0,0.437,824.0,70.8,1
4013328,32107180723,111.0,94.0,-110.0,0,0.425,824.0,70.8,1
4013329,32107188723,113.0,99.0,-105.0,0,0.42,824.0,70.8,1
4013330,32107196723,127.0,105.0,-99.0,0,0.421,824.0,70.8,1
4013331,32107204726,143.0,115.0,-92.0,0,0.422,824.0,70.8,1
4013332,32107212725,163.0,126.0,-83.0,0,0.427,824.0,70.8,1
4013333,32107220723,193.0,142.0,-72.0,0,0.431,824.0,70.8,1
4013334,32107228723,223.0,162.0,-59.0,0,0.433,824.0,70.8,1
4013335,32107236726,268.0,188.0,-42.0,0,0.445,824.0,70.8,1
4013336,32107244725,315.0,219.0,-21.0,0,0.455,824.0,70.8,1
4013337,32107252724,365.0,254.0,4.0,0,0.5,824.0,70.8,1
4013338,32107260723,422.0,295.0,33.0,0,0.547,824.0,70.8,1
4013339,32107268723,476.0,339.0,66.0,0,0.596,824.0,70.8,1
4013340,32107276726,529.0,385.0,102.0,0,0.643,824.0,70.8,1
4013341,32107284723,577.0,431.0,141.0,0,0.691,824.0,70.8,1
4013342,32107292724,620.0,477.0,182.0,0,0.736,824.0,70.8,1
4013343,32107300724,661.0,522.0,222.0,0,0.768,824.0,70.8,1
4013344,32107308726,691.0,563.0,263.0,0,0.803,824.0,70.8,1
4013345,32107316723,720.0,601.0,302.0,0,0.823,824.0,70.8,1
4013346,32107324726,736.0,634.0,338.0,0,0.834,824.0,70.8,1
4013347,32107332723,750.0,662.0,371.0,0,0.838,824.0,70.8,1
4013348,32107340728,745.0,682.0,400.0,0,0.832,824.0,70.8,1
4013349,32107348726,743.0,697.0,423.0,0,0.809,824.0,70.8,1
4013350,32107356723,733.0,706.0,442.0,0,0.791,824.0,70.8,1
4013351,32107364726,712.0,707.0,455.0,0,0.755,824.0,70.8,1
4013352,32107372723,690.0,703.0,462.0,0,0.717,824.0,70.8,1
4013353,32107380727,663.0,693.0,463.0,0,0.679,824.0,70.8,1
4013354,32107388723,635.0,679.0,459.0,1,0.694,824.0,70.8,1
4013355,32107396727,600.0,660.0,450.0,0,0.72,824.0,70.8,1
4013356,32107404723,568.0,638.0,436.0,0,0.745,824.0,70.8,1
4013357,32107412723,535.0,613.0,419.0,0,0.755,824.0,70.8,1
4013358,32107420724,498.0,585.0,397.0,0,0.772,824.0,70.8,1
4013359,32107428723,460.0,555.0,373.0,0,0.768,824.0,70.8,1
4013360,32107436725,425.0,523.0,346.0,0,0.765,824.0,70.8,1
4013361,32107444727,383.0,489.0,317.0,0,0.753,824.0,70.8,1
4013362,32107452725,344.0,454.0,285.0,0,0.74,824.0,70.8,1
4013363,32107460723,303.0,417.0,252.0,0,0.714,824.0,70.8,1
4013364,32107468723,267.0,381.0,218.0,0,0.686,824.0,70.8,1
4013365,32107476723,232.0,345.0,183.0,0,0.655,824.0,70.8,1
4013366,32107484723,194.0,308.0,147.0,0,0.623,824.0,70.8,1
4013367,32107492726,164.0,273.0,111.0,0,0.587,824.0,70.8,1
4013368,32107500723,135.0,240.0,77.0,0,0.547,824.0,70.8,1
4013369,32107508723,112.0,209.0,43.0,0,0.516,824.0,70.8,1
4013370,32107516726,92.0,180.0,11.0,0,0.503,824.0,70.8,1
4013371,32107524724,72.0,154.0,-19.0,0,0.52,824.0,70.8,1
4013372,32107532723,57.0,131.0,-47.0,0,0.536,824.0,70.8,1
4013373,32107540723,43.0,109.0,-73.0,0,0.551,824.0,70.8,1
4013374,32107548724,35.0,91.0,-97.0,0,0.563,824.0,70.8,1
4013375,32107556723,28.0,76.0,-117.0,0,0.56,824.0,70.8,1
4013376,32107564723,18.0,62.0,-136.0,0,0.572,824.0,70.8,1
4013377,32107572723,18.0,51.0,-152.0,0,0.569,824.0,70.8,1
4013378,32107580723,17.0,43.0,-165.0,0,0.563,824.0,70.8,1
4013379,32107588723,16.0,36.0,-176.0,0,0.561,824.0,70.8,1
4013380,32107596723,16.0,31.0,-185.0,0,0.556,824.0,70.8,1
4013381,32107604723,16.0,28.0,-192.0,0,0.55,824.0,70.8,1
4013382,32107612726,20.0,26.0,-197.0,0,0.542,824.0,70.8,1
4013383,32107620723,18.0,24.0,-201.0,0,0.538,824.0,70.8,1
4013384,32107628726,20.0,23.0,-204.0,0,0.534,824.0,70.8,1
4013385,32107636724,22.0,23.0,-205.0,0,0.523,824.0,70.8,1
4013386,32107644728,18.0,22.0,-206.0,0,0.523,824.0,70.8,1
4013387,32107652723,23.0,22.0,-206.0,1,0.516,827.2,70.8,1
4013388,32107660723,21.0,22.0,-206.0,0,0.515,827.2,70.8,1
4013389,32107668726,22.0,22.0,-206.0,0,0.513,827.2,70.8,1
4013390,32107676723,23.0,22.0,-205.0,0,0.517,827.2,70.8,1
4013391,32107684723,23.0,22.0,-204.0,0,0.515,827.2,70.8,1
4013392,32107692724,22.0,22.0,-203.0,0,0.513,827.2,70.8,1
4013393,32107700723,25.0,23.0,-201.0,0,0.516,827.2,70.8,1
4013394,32107708723,26.0,24.0,-200.0,0,0.508,827.2,70.8,1
4013395,32107716723,28.0,25.0,-198.0,0,0.511,827.2,70.8,1
4013396,32107724728,26.0,25.0,-196.0,0,0.509,827.2,70.8,1
4013397,32107732723,28.0,26.0,-194.0,0,0.506,827.2,70.8,1
4013398,32107740723,27.0,26.0,-193.0,0,0.498,827.2,70.8,1
4013399,32107748723,27.0,26.0,-191.0,0,0.501,827.2,70.8,1
4013400,32107756723,29.0,27.0,-189.0,0,0.498,827.2,70.8,1
4013401,32107764723,28.0,27.0,-188.0,0,0.49,827.2,70.8,1
4013402,32107772723,29.0,28.0,-186.0,0,0.493,827.2,70.8,1
4013403,32107780726,33.0,29.0,-184.0,0,0.49,827.2,70.8,1
4013404,32107788723,36.0,31.0,-182.0,0,0.487,827.2,70.8,1
4013405,32107796723,39.0,33.0,-179.0,0,0.489,827.2,70.8,1
4013406,32107804726,42.0,35.0,-177.0,0,0.48,827.2,70.8,1
4013407,32107812724,44.0,37.0,-174.0,0,0.482,827.2,70.8,1
4013408,32107820726,48.0,40.0,-171.0,0,0.478,827.2,70.8,1
4013409,32107828723,50.0,42.0,-167.0,0,0.48,827.2,70.8,1
4013410,32107836723,55.0,45.0,-164.0,0,0.47,827.2,70.8,1
4013411,32107844723,61.0,49.0,-160.0,0,0.471,827.2,70.8,1
4013412,32107852723,69.0,54.0,-156.0,0,0.466,827.2,70.8,1
4013413,32107860723,71.0,58.0,-151.0,0,0.467,827.2,70.8,1
4013414,32107868723,78.0,63.0,-146.0,0,0.462,827.2,70.8,1
4013415,32107876723,86.0,69.0,-141.0,0,0.456,827.2,70.8,1
4013416,32107884726,92.0,74.0,-135.0,0,0.457,827.2,70.8,1
4013417,32107892723,96.0,79.0,-129.0,0,0.45,827.2,70.8,1
4013418,32107900723,102.0,85.0,-123.0,0,0.444,827.2,70.8,1
4013419,32107908723,107.0,90.0,-117.0,0,0.438,827.2,70.8,1
4013420,32107916726,115.0,96.0,-111.0,0,0.432,827.2,70.8,1
4013421,32107924723,116.0,101.0,-105.0,0,0.426,827.2,70.8,1
4013422,32107932725,118.0,105.0,-100.0,0,0.415,827.2,70.8,1
4013423,32107940723,127.0,110.0,-94.0,0,0.416,827.2,70.8,1
4013424,32107948727,136.0,117.0,-88.0,0,0.41,827.2,70.8,1
4013425,32107956726,147.0,124.0,-82.0,0,0.405,827.2,70.8,1
4013426,32107964724,162.0,133.0,-74.0,0,0.411,828.8,70.8,1
4013427,32107972723,188.0,146.0,-65.0,0,0.409,828.8,70.8,1
4013428,32107980723,218.0,164.0,-54.0,0,0.413,828.8,70.8,1
4013429,32107988725,260.0,187.0,-39.0,0,0.427,828.8,70.8,1
4013430,32107996724,303.0,215.0,-20.0,0,0.437,828.8,70.8,1
4013431,32108004723,348.0,247.0,2.0,0,0.474,828.8,70.8,1
4013432,32108012723,406.0,286.0,29.0,0,0.525,828.8,70.8,1
4013433,32108020725,457.0,327.0,60.0,0,0.573,828.8,70.8,1
4013434,32108028722,510.0,372.0,94.0,0,0.618,828.8,70.8,1
4013435,32108036724,561.0,418.0,131.0,0,0.664,828.8,70.8,1
4013436,32108044723,604.0,463.0,170.0,0,0.708,828.8,70.8,1
4013437,32108052723,636.0,505.0,209.0,0,0.742,828.8,70.8,1
4013438,32108060726,673.0,546.0,248.0,0,0.774,828.8,70.8,1
4013439,32108068726,699.0,583.0,286.0,0,0.798,828.8,70.8,1
4013440,32108076723,717.0,615.0,322.0,0,0.814,828.8,70.8,1
4013441,32108084723,728.0,643.0,354.0,0,0.815,828.8,70.8,1
4013442,32108092724,730.0,664.0,382.0,0,0.81,828.8,70.8,1
4013443,32108100723,725.0,679.0,406.0,0,0.798,828.8,70.8,1
4013444,32108108725,717.0,688.0,424.0,0,0.77,828.8,70.8,1
4013445,32108116726,699.0,691.0,437.0,0,0.742,828.8,70.8,1
4013446,32108124723,679.0,688.0,445.0,0,0.711,828.8,70.8,1
4013447,32108132723,656.0,680.0,448.0,0,0.68,828.8,70.8,1
4013448,32108140725,625.0,667.0,445.0,1,0.677,828.8,70.8,1
4013449,32108148723,595.0,649.0,437.0,0,0.703,828.8,70.8,1
4013450,32108156723,563.0,628.0,424.0,0,0.727,828.8,70.8,1
4013451,32108164728,526.0,604.0,408.0,0,0.736,828.8,70.8,1
4013452,32108172726,493.0,577.0,388.0,0,0.748,828.8,70.8,1
4013453,32108180723,455.0,547.0,364.0,0,0.755,828.8,70.8,1
4013454,32108188724,418.0,516.0,338.0,0,0.747,828.8,70.8,1
4013455,32108196723,382.0,483.0,310.0,0,0.735,828.8,70.8,1
4013456,32108204725,340.0,449.0,279.0,0,0.723,828.8,70.8,1
4013457,32108212723,304.0,414.0,247.0,0,0.699,828.8,70.8,1
4013458,32108220724,266.0,378.0,213.0,0,0.675,828.8,70.8,1
4013459,32108228723,225.0,341.0,179.0,0,0.642,828.8,70.8,1
4013460,32108236724,193.0,305.0,144.0,0,0.611,828.8,70.8,1
4013461,32108244723,164.0,271.0,109.0,0,0.577,828.8,70.8,1
4013462,32108252726,139.0,239.0,75.0,0,0.541,828.8,70.8,1
4013463,32108260723,108.0,207.0,41.0,0,0.511,828.8,70.8,1
4013464,32108268725,85.0,178.0,9.0,0,0.503,828.8,70.8,1
4013465,32108276726,74.0,152.0,-21.0,0,0.519,828.8,70.8,1
4013466,32108284723,57.0,129.0,-48.0,0,0.529,828.8,70.8,1
4013467,32108292727,42.0,108.0,-74.0,0,0.547,828.8,70.8,1
4013468,32108300723,36.0,91.0,-97.0,0,0.553,828.8,70.8,1
4013469,32108308722,27.0,75.0,-118.0,0,0.562,828.8,70.8,1
4013470,32108316725,25.0,63.0,-135.0,0,0.555,828.8,70.8,1
4013471,32108324723,23.0,53.0,-150.0,0,0.556,828.8,70.8,1
4013472,32108332726,22.0,46.0,-163.0,0,0.556,828.8,70.8,1
4013473,32108340725,23.0,40.0,-173.0,0,0.547,828.8,70.8,1
4013474,32108348723,20.0,35.0,-182.0,0,0.548,828.8,70.8,1
4013475,32108356724,24.0,33.0,-188.0,0,0.535,828.8,70.8,1
4013476,32108364723,23.0,30.0,-193.0,0,0.533,828.8,70.8,1
4013477,32108372725,26.0,29.0,-196.0,0,0.523,828.8,70.8,1
4013478,32108380723,27.0,29.0,-198.0,0,0.518,828.8,70.8,1
4013479,32108388723,28.0,29.0,-199.0,0,0.513,828.8,70.8,1
4013480,32108396724,30.0,29.0,-200.0,0,0.512,828.8,70.8,1
4013481,32108404724,28.0,29.0,-200.0,1,0.506,828.8,70.8,1
4013482,32108412723,32.0,29.0,-199.0,0,0.509,828.8,70.8,1
4013483,32108420723,32.0,30.0,-198.0,0,0.507,828.8,70.8,1
4013484,32108428723,31.0,30.0,-197.0,0,0.505,828.8,70.8,1
4013485,32108436723,34.0,31.0,-195.0,0,0.508,828.8,70.8,1
4013486,32108444723,36.0,32.0,-194.0,0,0.5,828.8,70.8,1
4013487,32108452723,38.0,34.0,-192.0,0,0.503,828.8,70.8,1
4013488,32108460727,37.0,35.0,-190.0,0,0.501,828.8,70.8,1
4013489,32108468723,41.0,36.0,-187.0,0,0.503,828.8,70.8,1
4013490,32108476723,44.0,38.0,-185.0,0,0.494,828.8,70.8,1
4013491,32108484723,44.0,39.0,-182.0,0,0.496,828.8,70.8,1
4013492,32108492723,46.0,41.0,-180.0,0,0.487,828.8,70.8,1
4013493,32108500723,48.0,43.0,-177.0,0,0.489,828.8,70.8,1
4013494,32108508723,48.0,44.0,-175.0,0,0.48,828.8,70.8,1
4013495,32108516723,53.0,46.0,-172.0,0,0.482,828.8,70.8,1
4013496,32108524723,53.0,48.0,-169.0,0,0.479,828.8,70.8,1
4013497,32108532723,56.0,50.0,-166.0,0,0.475,828.8,70.8,1
4013498,32108540723,60.0,52.0,-163.0,0,0.471,828.8,70.8,1
4013499,32108548726,61.0,54.0,-160.0,0,0.467,828.8,70.8,1
4013500,32108556726,61.0,56.0,-157.0,0,0.463,828.8,70.8,1
4013501,32108564723,60.0,57.0,-155.0,0,0.454,828.8,70.8,1
4013502,32108572726,67.0,59.0,-152.0,0,0.456,828.8,70.8,1
4013503,32108580723,68.0,61.0,-149.0,0,0.453,828.8,70.8,1
4013504,32108588725,69.0,63.0,-146.0,0,0.449,828.8,70.8,1
4013505,32108596723,70.0,65.0,-143.0,0,0.446,828.8,70.8,1
4013506,32108604726,72.0,67.0,-140.0,0,0.442,790.4,75.0,1
4013507,32108612723,70.0,67.0,-138.0,0,0.434,790.4,75.0,1
4013508,32108620726,76.0,70.0,-135.0,0,0.436,790.4,75.0,1
4013509,32108628723,76.0,71.0,-133.0,0,0.428,790.4,75.0,1
4013510,32108636728,84.0,74.0,-130.0,0,0.431,790.4,75.0,1
4013511,32108644723,84.0,77.0,-127.0,0,0.428,790.4,75.0,1
4013512,32108652726,87.0,79.0,-124.0,0,0.425,790.4,75.0,1
4013513,32108660723,86.0,81.0,-121.0,0,0.422,790.4,75.0,1
4013514,32108668727,91.0,83.0,-118.0,0,0.419,790.4,75.0,1
4013515,32108676727,90.0,85.0,-115.0,0,0.417,790.4,75.0,1
4013516,32108684723,95.0,87.0,-112.0,0,0.414,790.4,75.0,1
4013517,32108692724,104.0,91.0,-109.0,0,0.411,790.4,75.0,1
4013518,32108700723,108.0,95.0,-105.0,0,0.414,790.4,75.0,1
4013519,32108708723,122.0,102.0,-100.0,0,0.416,790.4,75.0,1
4013520,32108716727,142.0,112.0,-94.0,0,0.417,790.4,75.0,1
4013521,32108724723,164.0,124.0,-86.0,0,0.422,790.4,75.0,1
4013522,32108732723,194.0,141.0,-75.0,0,0.432,790.4,75.0,1
4013523,32108740723,240.0,165.0,-60.0,0,0.445,790.4,75.0,1
4013524,32108748726,284.0,194.0,-42.0,0,0.449,790.4,75.0,1
4013525,32108756723,332.0,227.0,-19.0,0,0.459,790.4,75.0,1
4013526,32108764726,383.0,265.0,8.0,0,0.501,790.4,75.0,1
4013527,32108772723,443.0,308.0,39.0,0,0.547,790.4,75.0,1
4013528,32108780723,493.0,353.0,74.0,0,0.596,790.4,75.0,1
4013529,32108788723,540.0,398.0,112.0,0,0.642,790.4,75.0,1
4013530,32108796726,586.0,444.0,151.0,0,0.683,790.4,75.0,1
4013531,32108804723,624.0,488.0,191.0,0,0.722,790.4,75.0,1
4013532,32108812723,657.0,529.0,231.0,0,0.756,790.4,75.0,1
4013533,32108820723,677.0,565.0,268.0,0,0.774,790.4,75.0,1
4013534,32108828723,699.0,597.0,304.0,0,0.795,790.4,75.0,1
4013535,32108836724,710.0,625.0,337.0,0,0.803,790.4,75.0,1
4013536,32108844728,711.0,645.0,365.0,0,0.795,790.4,75.0,1
4013537,32108852723,707.0,660.0,389.0,0,0.785,790.4,75.0,1
4013538,32108860723,690.0,668.0,407.0,0,0.757,790.4,75.0,1
4013539,32108868725,678.0,670.0,420.0,0,0.731,790.4,75.0,1
4013540,32108876726,657.0,667.0,427.0,0,0.695,790.4,75.0,1
4013541,32108884723,628.0,657.0,429.0,0,0.664,790.4,75.0,1
4013542,32108892723,604.0,645.0,425.0,1,0.672,790.4,75.0,1
4013543,32108900726,569.0,626.0,417.0,0,0.691,790.4,75.0,1
4013544,32108908723,540.0,605.0,404.0,0,0.714,790.4,75.0,1
4013545,32108916723,505.0,581.0,388.0,0,0.722,790.4,75.0,1
4013546,32108924724,466.0,553.0,367.0,0,0.738,790.4,75.0,1
4013547,32108932723,435.0,524.0,344.0,0,0.733,790.4,75.0,1
4013548,32108940727,388.0,491.0,317.0,0,0.733,790.4,75.0,1
4013549,32108948726,355.0,458.0,289.0,0,0.715,790.4,75.0,1
4013550,32108956723,316.0,424.0,258.0,0,0.702,790.4,75.0,1
4013551,32108964724,285.0,390.0,226.0,0,0.677,790.4,75.0,1
4013552,32108972723,245.0,355.0,193.0,0,0.649,790.4,75.0,1
4013553,32108980724,216.0,321.0,159.0,0,0.62,790.4,75.0,1
4013554,32108988723,181.0,287.0,126.0,0,0.584,790.4,75.0,1
4013555,32108996722,158.0,256.0,93.0,0,0.553,790.4,75.0,1
4013556,32109004724,132.0,226.0,61.0,0,0.519,790.4,75.0,1
4013557,32109012723,112.0,198.0,30.0,0,0.488,790.4,75.0,1
4013558,32109020724,90.0,172.0,1.0,0,0.493,790.4,75.0,1
4013559,32109028723,73.0,148.0,-27.0,0,0.512,790.4,75.0,1
4013560,32109036724,60.0,127.0,-53.0,0,0.525,790.4,75.0,1
4013561,32109044723,49.0,108.0,-76.0,0,0.531,790.4,75.0,1
4013562,32109052723,44.0,92.0,-97.0,0,0.539,790.4,75.0,1
4013563,32109060727,40.0,80.0,-115.0,0,0.539,790.4,75.0,1
4013564,32109068723,37.0,69.0,-131.0,0,0.542,790.4,75.0,1
4013565,32109076723,36.0,61.0,-144.0,0,0.536,790.4,75.0,1
4013566,32109084723,32.0,54.0,-155.0,0,0.534,790.4,75.0,1
4013567,32109092723,35.0,50.0,-164.0,0,0.529,790.4,75.0,1
4013568,32109100723,34.0,46.0,-171.0,0,0.523,790.4,75.0,1
4013569,32109108723,35.0,43.0,-176.0,0,0.515,790.4,75.0,1
4013570,32109116726,35.0,41.0,-180.0,0,0.512,790.4,75.0,1
4013571,32109124723,34.0,39.0,-183.0,0,0.508,790.4,75.0,1
4013572,32109132723,40.0,40.0,-185.0,0,0.503,790.4,75.0,1
4013573,32109140723,42.0,40.0,-186.0,0,0.497,790.4,75.0,1
4013574,32109148723,38.0,40.0,-186.0,1,0.491,790.4,75.0,1
4013575,32109156723,44.0,41.0,-186.0,0,0.49,790.4,75.0,1
4013576,32109164727,44.0,41.0,-185.0,0,0.493,790.4,75.0,1
4013577,32109172727,47.0,43.0,-184.0,0,0.491,790.4,75.0,1
4013578,32109180722,50.0,45.0,-182.0,0,0.494,790.4,75.0,1
4013579,32109188725,47.0,45.0,-180.0,0,0.492,790.4,75.0,1
4013580,32109196723,50.0,46.0,-178.0,0,0.489,790.4,75.0,1
4013581,32109204723,48.0,47.0,-176.0,0,0.486,790.4,75.0,1
4013582,32109212723,47.0,47.0,-175.0,0,0.478,790.4,75.0,1
4013583,32109220723,51.0,48.0,-173.0,0,0.481,790.4,75.0,1
4013584,32109228726,45.0,47.0,-171.0,0,0.478,790.4,75.0,1
4013585,32109236723,49.0,48.0,-170.0,0,0.471,790.4,75.0,1
4013586,32109244723,46.0,47.0,-169.0,0,0.469,790.4,75.0,1
4013587,32109252727,49.0,48.0,-167.0,0,0.471,790.4,75.0,1
4013588,32109260723,50.0,48.0,-166.0,0,0.464,790.4,75.0,1
4013589,32109268727,53.0,49.0,-164.0,0,0.466,790.4,75.0,1
4013590,32109276723,51.0,50.0,-163.0,0,0.459,790.4,75.0,1
4013591,32109284727,50.0,50.0,-161.0,0,0.461,790.4,75.0,1
4013592,32109292723,48.0,49.0,-160.0,0,0.454,790.4,75.0,1
4013593,32109300723,50.0,50.0,-159.0,0,0.452,790.4,75.0,1
4013594,32109308726,55.0,51.0,-157.0,0,0.455,790.4,75.0,1
4013595,32109316723,55.0,52.0,-156.0,0,0.447,790.4,75.0,1
4013596,32109324724,54.0,52.0,-154.0,0,0.451,790.4,75.0,1
4013597,32109332723,60.0,54.0,-152.0,0,0.448,790.4,75.0,1
4013598,32109340723,60.0,56.0,-150.0,0,0.446,790.4,75.0,1
4013599,32109348723,67.0,58.0,-147.0,0,0.448,790.4,75.0,1
4013600,32109356723,69.0,61.0,-145.0,0,0.44,790.4,75.0,1
4013601,32109364723,73.0,64.0,-142.0,0,0.443,790.4,75.0,1
4013602,32109372723,77.0,67.0,-138.0,0,0.445,777.6,76.5,1
4013603,32109380723,78.0,70.0,-135.0,0,0.436,777.6,76.5,1
4013604,32109388727,86.0,74.0,-131.0,0,0.438,777.6,76.5,1
4013605,32109396723,92.0,78.0,-127.0,0,0.435,777.6,76.5,1
4013606,32109404724,89.0,81.0,-123.0,0,0.431,777.6,76.5,1
4013607,32109412723,96.0,84.0,-119.0,0,0.427,777.6,76.5,1
4013608,32109420723,98.0,88.0,-115.0,0,0.423,777.6,76.5,1
4013609,32109428724,106.0,92.0,-110.0,0,0.425,777.6,76.5,1
4013610,32109436727,115.0,98.0,-105.0,0,0.421,777.6,76.5,1
4013611,32109444727,135.0,107.0,-99.0,0,0.422,777.6,76.5,1
4013612,32109452723,156.0,119.0,-91.0,0,0.427,777.6,76.5,1
4013613,32109460724,186.0,135.0,-81.0,0,0.432,777.6,76.5,1
4013614,32109468723,220.0,156.0,-67.0,0,0.446,777.6,76.5,1
4013615,32109476723,261.0,181.0,-50.0,0,0.45,777.6,76.5,1
4013616,32109484727,307.0,212.0,-30.0,0,0.451,777.6,76.5,1
4013617,32109492727,359.0,247.0,-5.0,0,0.481,777.6,76.5,1
4013618,32109500724,406.0,286.0,24.0,0,0.526,777.6,76.5,1
4013619,32109508724,457.0,327.0,56.0,0,0.569,777.6,76.5,1
4013620,32109516726,511.0,372.0,91.0,0,0.614,777.6,76.5,1
4013621,32109524723,555.0,416.0,129.0,0,0.661,777.6,76.5,1
4013622,32109532723,593.0,459.0,167.0,0,0.697,777.6,76.5,1
4013623,32109540723,624.0,499.0,205.0,0,0.731,777.6,76.5,1
4013624,32109548723,652.0,536.0,243.0,0,0.762,777.6,76.5,1
4013625,32109556723,673.0,569.0,278.0,0,0.777,777.6,76.5,1
4013626,32109564727,688.0,598.0,311.0,0,0.791,777.6,76.5,1
4013627,32109572728,691.0,621.0,340.0,0,0.79,777.6,76.5,1
4013628,32109580724,691.0,638.0,365.0,0,0.782,777.6,76.5,1
4013629,32109588726,681.0,648.0,385.0,0,0.763,777.6,76.5,1
4013630,32109596723,665.0,652.0,399.0,0,0.731,777.6,76.5,1
4013631,32109604727,649.0,651.0,409.0,0,0.709,777.6,76.5,1
4013632,32109612725,623.0,645.0,413.0,0,0.672,777.6,76.5,1
4013633,32109620724,596.0,633.0,411.0,1,0.658,777.6,76.5,1
4013634,32109628723,568.0,617.0,405.0,0,0.677,777.6,76.5,1
4013635,32109636724,538.0,598.0,395.0,0,0.695,777.6,76.5,1
4013636,32109644724,507.0,576.0,380.0,0,0.717,777.6,76.5,1
4013637,32109652723,469.0,550.0,362.0,0,0.723,777.6,76.5,1
4013638,32109660723,435.0,522.0,340.0,0,0.73,777.6,76.5,1
4013639,32109668726,394.0,491.0,315.0,0,0.728,777.6,76.5,1
4013640,32109676726,363.0,460.0,288.0,0,0.715,777.6,76.5,1
4013641,32109684723,324.0,427.0,259.0,0,0.7,777.6,76.5,1
4013642,32109692723,287.0,393.0,228.0,0,0.68,777.6,76.5,1
4013643,32109700724,253.0,359.0,196.0,0,0.653,777.6,76.5,1
4013644,32109708723,221.0,326.0,164.0,0,0.621,777.6,76.5,1
4013645,32109716724,188.0,292.0,131.0,0,0.593,777.6,76.5,1
4013646,32109724723,159.0,260.0,98.0,0,0.561,777.6,76.5,1
4013647,32109732726,139.0,231.0,67.0,0,0.523,777.6,76.5,1
4013648,32109740725,112.0,202.0,36.0,0,0.496,777.6,76.5,1
4013649,32109748724,96.0,176.0,7.0,0,0.489,777.6,76.5,1
4013650,32109756726,83.0,154.0,-21.0,0,0.508,777.6,76.5,1
4013651,32109764723,67.0,133.0,-46.0,0,0.516,777.6,76.5,1
4013652,32109772723,58.0,115.0,-69.0,0,0.526,777.6,76.5,1
4013653,32109780723,53.0,100.0,-89.0,0,0.529,777.6,76.5,1
4013654,32109788723,51.0,88.0,-107.0,0,0.534,777.6,76.5,1
4013655,32109796723,51.0,79.0,-121.0,0,0.524,777.6,76.5,1
4013656,32109804723,49.0,72.0,-134.0,0,0.53,777.6,76.5,1
4013657,32109812724,48.0,66.0,-144.0,0,0.521,777.6,76.5,1
4013658,32109820723,51.0,62.0,-152.0,0,0.516,777.6,76.5,1
4013659,32109828723,54.0,60.0,-158.0,0,0.509,777.6,76.5,1
4013660,32109836723,59.0,60.0,-162.0,0,0.501,776.0,76.5,1
4013661,32109844723,60.0,60.0,-164.0,0,0.491,776.0,76.5,1
4013662,32109852723,57.0,59.0,-166.0,0,0.492,776.0,76.5,1
4013663,32109860723,60.0,59.0,-167.0,0,0.486,776.0,76.5,1
4013664,32109868723,60.0,60.0,-167.0,1,0.479,776.0,76.5,1
4013665,32109876723,62.0,60.0,-167.0,0,0.478,776.0,76.5,1
4013666,32109884723,60.0,60.0,-166.0,0,0.482,776.0,76.5,1
4013667,32109892723,60.0,60.0,-166.0,1,0.475,776.0,76.5,1
4013668,32109900727,59.0,60.0,-165.0,0,0.479,776.0,76.5,1
4013669,32109908726,59.0,60.0,-164.0,0,0.477,776.0,76.5,1
4013670,32109916726,59.0,59.0,-163.0,0,0.475,776.0,76.5,1
4013671,32109924723,58.0,59.0,-162.0,0,0.473,776.0,76.5,1
4013672,32109932723,55.0,58.0,-162.0,1,0.467,776.0,76.5,1
4013673,32109940727,56.0,58.0,-161.0,0,0.47,776.0,76.5,1
4013674,32109948726,52.0,56.0,-161.0,1,0.464,776.0,76.5,1
4013675,32109956723,52.0,55.0,-161.0,0,0.463,776.0,76.5,1
4013676,32109964724,50.0,54.0,-161.0,0,0.462,776.0,76.5,1
4013677,32109972727,49.0,53.0,-161.0,0,0.461,776.0,76.5,1
4013678,32109980726,44.0,51.0,-161.0,0,0.46,776.0,76.5,1
4013679,32109988723,42.0,49.0,-161.0,0,0.459,776.0,76.5,1
4013680,32109996723,46.0,48.0,-162.0,0,0.465,776.0,76.5,1
4013681,32110004727,45.0,47.0,-162.0,1,0.458,776.0,76.5,1
4013682,32110012723,48.0,47.0,-161.0,0,0.462,776.0,76.5,1
4013683,32110020723,49.0,48.0,-161.0,1,0.455,776.0,76.5,1
4013684,32110028723,49.0,48.0,-160.0,0,0.459,776.0,76.5,1
4013685,32110036725,52.0,49.0,-159.0,0,0.457,776.0,76.5,1
4013686,32110044723,53.0,50.0,-157.0,0,0.46,776.0,76.5,1
4013687,32110052723,57.0,52.0,-155.0,0,0.457,776.0,76.5,1
4013688,32110060726,57.0,53.0,-153.0,0,0.454,776.0,76.5,1
4013689,32110068727,63.0,55.0,-151.0,0,0.451,776.0,76.5,1
4013690,32110076726,68.0,58.0,-148.0,0,0.454,776.0,76.5,1
4013691,32110084727,69.0,61.0,-145.0,0,0.45,776.0,76.5,1
4013692,32110092727,79.0,65.0,-142.0,0,0.447,776.0,76.5,1
4013693,32110100723,76.0,68.0,-138.0,0,0.449,776.0,76.5,1
4013694,32110108723,80.0,71.0,-134.0,0,0.445,776.0,76.5,1
4013695,32110116723,86.0,75.0,-131.0,0,0.435,776.0,76.5,1
4013696,32110124724,92.0,79.0,-126.0,0,0.443,776.0,76.5,1
4013697,32110132726,97.0,83.0,-122.0,0,0.432,776.0,76.5,1
4013698,32110140724,100.0,87.0,-117.0,0,0.434,756.8,78.9,1
4013699,32110148723,105.0,92.0,-113.0,0,0.423,753.6,78.9,1
4013700,32110156723,113.0,97.0,-108.0,0,0.425,753.6,78.9,1
4013701,32110164723,124.0,103.0,-102.0,0,0.426,753.6,78.9,1
4013702,32110172723,146.0,114.0,-95.0,0,0.426,753.6,78.9,1
4013703,32110180722,164.0,126.0,-86.0,0,0.432,753.6,78.9,1
4013704,32110188723,198.0,143.0,-75.0,0,0.435,753.6,78.9,1
4013705,32110196726,237.0,166.0,-60.0,0,0.448,753.6,78.9,1
4013706,32110204723,283.0,194.0,-42.0,0,0.452,753.6,78.9,1
4013707,32110212726,335.0,228.0,-19.0,0,0.464,753.6,78.9,1
4013708,32110220725,383.0,266.0,8.0,0,0.509,753.6,78.9,1
4013709,32110228723,439.0,308.0,39.0,0,0.557,753.6,78.9,1
4013710,32110236726,487.0,351.0,73.0,0,0.602,753.6,78.9,1
4013711,32110244727,540.0,397.0,110.0,0,0.65,753.6,78.9,1
4013712,32110252724,584.0,442.0,149.0,0,0.695,753.6,78.9,1
4013713,32110260725,630.0,488.0,190.0,0,0.74,753.6,78.9,1
4013714,32110268723,663.0,530.0,230.0,0,0.771,753.6,78.9,1
4013715,32110276723,692.0,570.0,269.0,0,0.799,753.6,78.9,1
4013716,32110284728,711.0,604.0,306.0,0,0.817,753.6,78.9,1
4013717,32110292723,724.0,633.0,340.0,0,0.825,753.6,78.9,1
4013718,32110300723,729.0,656.0,370.0,0,0.822,753.6,78.9,1
4013719,32110308723,728.0,674.0,396.0,0,0.813,753.6,78.9,1
4013720,32110316725,719.0,685.0,417.0,0,0.793,753.6,78.9,1
4013721,32110324723,702.0,689.0,431.0,0,0.753,753.6,78.9,1
4013722,32110332726,682.0,687.0,441.0,0,0.73,753.6,78.9,1
4013723,32110340728,659.0,680.0,445.0,0,0.692,753.6,78.9,1
4013724,32110348722,627.0,667.0,443.0,1,0.677,753.6,78.9,1
4013725,32110356723,596.0,650.0,436.0,0,0.703,753.6,78.9,1
4013726,32110364723,567.0,630.0,424.0,0,0.729,753.6,78.9,1
4013727,32110372723,533.0,606.0,409.0,0,0.739,753.6,78.9,1
4013728,32110380724,498.0,580.0,389.0,0,0.758,753.6,78.9,1
4013729,32110388723,460.0,551.0,367.0,0,0.755,753.6,78.9,1
4013730,32110396724,420.0,519.0,341.0,0,0.758,753.6,78.9,1
4013731,32110404724,381.0,486.0,312.0,0,0.751,753.6,78.9,1
4013732,32110412727,344.0,451.0,282.0,0,0.73,753.6,78.9,1
4013733,32110420726,303.0,415.0,249.0,0,0.713,753.6,78.9,1
4013734,32110428723,268.0,380.0,216.0,0,0.681,753.6,78.9,1
4013735,32110436723,232.0,344.0,181.0,0,0.654,753.6,78.9,1
4013736,32110444722,196.0,308.0,146.0,0,0.619,753.6,78.9,1
4013737,32110452722,165.0,273.0,111.0,0,0.583,753.6,78.9,1
4013738,32110460723,138.0,241.0,77.0,0,0.546,753.6,78.9,1
4013739,32110468724,115.0,210.0,44.0,0,0.512,753.6,78.9,1
4013740,32110476723,92.0,181.0,12.0,0,0.501,753.6,78.9,1
4013741,32110484723,78.0,156.0,-17.0,0,0.513,753.6,78.9,1
4013742,32110492723,62.0,134.0,-45.0,0,0.534,753.6,78.9,1
4013743,32110500723,52.0,114.0,-70.0,0,0.543,753.6,78.9,1
4013744,32110508722,42.0,96.0,-92.0,0,0.548,753.6,78.9,1
4013745,32110516722,42.0,83.0,-112.0,0,0.556,753.6,78.9,1
4013746,32110524724,36.0,72.0,-129.0,0,0.555,753.6,78.9,1
4013747,32110532726,36.0,63.0,-143.0,0,0.55,753.6,78.9,1
4013748,32110540723,33.0,56.0,-155.0,0,0.549,753.6,78.9,1
4013749,32110548723,34.0,51.0,-165.0,0,0.546,753.6,78.9,1
4013750,32110556723,36.0,47.0,-172.0,0,0.534,753.6,78.9,1
4013751,32110564724,36.0,44.0,-178.0,0,0.533,753.6,78.9,1
4013752,32110572723,34.0,42.0,-182.0,0,0.525,753.6,78.9,1
4013753,32110580723,39.0,41.0,-185.0,0,0.521,753.6,78.9,1
4013754,32110588723,41.0,41.0,-187.0,0,0.516,753.6,78.9,1
4013755,32110596723,42.0,41.0,-188.0,0,0.511,753.6,78.9,1
4013756,32110604723,38.0,41.0,-189.0,0,0.511,753.6,78.9,1
4013757,32110612723,38.0,40.0,-189.0,1,0.504,753.6,78.9,1
4013758,32110620726,39.0,40.0,-189.0,0,0.503,753.6,78.9,1
4013759,32110628723,39.0,40.0,-188.0,0,0.506,753.6,78.9,1
4013760,32110636723,38.0,39.0,-188.0,1,0.5,753.6,78.9,1
4013761,32110644723,35.0,38.0,-187.0,0,0.503,753.6,78.9,1
4013762,32110652723,36.0,38.0,-187.0,1,0.497,753.6,78.9,1
4013763,32110660723,36.0,37.0,-186.0,0,0.5,753.6,78.9,1
4013764,32110668726,36.0,37.0,-185.0,0,0.498,753.6,78.9,1
4013765,32110676723,35.0,36.0,-185.0,1,0.492,753.6,78.9,1
4013766,32110684727,35.0,36.0,-184.0,0,0.496,753.6,78.9,1
4013767,32110692723,35.0,36.0,-183.0,0,0.494,753.6,78.9,1
4013768,32110700723,32.0,35.0,-182.0,0,0.492,753.6,78.9,1
4013769,32110708723,32.0,34.0,-182.0,1,0.485,753.6,78.9,1
4013770,32110716723,35.0,34.0,-181.0,0,0.489,753.6,78.9,1
4013771,32110724723,35.0,35.0,-180.0,0,0.487,753.6,78.9,1
4013772,32110732723,38.0,35.0,-179.0,0,0.485,753.6,78.9,1
4013773,32110740723,36.0,36.0,-177.0,0,0.488,753.6,78.9,1
4013774,32110748723,36.0,36.0,-176.0,0,0.48,753.6,78.9,1
4013775,32110756723,44.0,38.0,-174.0,0,0.483,753.6,78.9,1
4013776,32110764723,44.0,39.0,-172.0,0,0.48,753.6,78.9,1
4013777,32110772723,48.0,41.0,-170.0,0,0.477,753.6,78.9,1
4013778,32110780726,48.0,43.0,-167.0,0,0.479,753.6,78.9,1
4013779,32110788723,47.0,44.0,-165.0,0,0.47,753.6,78.9,1
4013780,32110796723,53.0,46.0,-162.0,0,0.472,753.6,78.9,1
4013781,32110804724,57.0,49.0,-159.0,0,0.468,753.6,78.9,1
4013782,32110812723,64.0,52.0,-156.0,0,0.464,753.6,78.9,1
4013783,32110820723,64.0,55.0,-153.0,0,0.46,753.6,78.9,1
4013784,32110828723,68.0,58.0,-149.0,0,0.462,753.6,78.9,1
4013785,32110836727,77.0,63.0,-145.0,0,0.457,753.6,78.9,1
4013786,32110844727,79.0,67.0,-140.0,0,0.458,753.6,78.9,1
4013787,32110852723,84.0,71.0,-136.0,0,0.447,753.6,78.9,1
4013788,32110860723,85.0,74.0,-131.0,0,0.449,753.6,78.9,1
4013789,32110868723,96.0,80.0,-127.0,0,0.438,753.6,78.9,1
4013790,32110876723,104.0,86.0,-121.0,0,0.445,753.6,78.9,1
4013791,32110884727,111.0,92.0,-115.0,0,0.439,753.6,78.9,1
4013792,32110892723,125.0,100.0,-109.0,0,0.433,753.6,78.9,1
4013793,32110900724,146.0,111.0,-101.0,0,0.439,753.6,78.9,1
4013794,32110908724,172.0,126.0,-91.0,0,0.443,753.6,78.9,1
4013795,32110916723,210.0,146.0,-77.0,0,0.457,753.6,78.9,1
4013796,32110924723,255.0,173.0,-60.0,0,0.46,753.6,78.9,1
4013797,32110932723,303.0,204.0,-39.0,0,0.466,753.6,78.9,1
4013798,32110940723,351.0,240.0,-14.0,0,0.48,753.6,78.9,1
4013799,32110948723,406.0,280.0,15.0,0,0.526,753.6,78.9,17
4013800,32110956724,461.0,324.0,48.0,0,0.575,753.6,78.9,17
4013801,32110964723,508.0,369.0,85.0,0,0.626,753.6,78.9,17
4013802,32110972723,556.0,414.0,123.0,0,0.668,753.6,78.9,17
4013803,32110980725,600.0,459.0,163.0,0,0.713,753.6,78.9,17
4013804,32110988723,634.0,501.0,203.0,0,0.75,753.6,78.9,17
4013805,32110996723,664.0,541.0,242.0,0,0.78,753.6,78.9,17
4013806,32111004723,689.0,577.0,279.0,0,0.8,753.6,78.9,17
4013807,32111012723,703.0,607.0,314.0,0,0.815,753.6,78.9,17
4013808,32111020723,714.0,633.0,346.0,0,0.821,753.6,78.9,17
4013809,32111028723,716.0,653.0,373.0,0,0.81,753.6,78.9,17
4013810,32111036724,710.0,667.0,396.0,0,0.797,753.6,78.9,17
4013811,32111044723,698.0,675.0,413.0,0,0.767,753.6,78.9,17
4013812,32111052724,683.0,677.0,425.0,0,0.739,753.6,78.9,17
4013813,32111060723,660.0,673.0,432.0,0,0.708,753.6,78.9,17
4013814,32111068723,636.0,664.0,433.0,0,0.67,753.6,78.9,17
4013815,32111076723,610.0,651.0,430.0,1,0.679,753.6,78.9,17
4013816,32111084722,574.0,632.0,421.0,0,0.711,753.6,78.9,17
4013817,32111092723,545.0,611.0,408.0,0,0.729,753.6,78.9,17
4013818,32111100723,516.0,588.0,392.0,0,0.738,753.6,78.9,17
4013819,32111108726,477.0,561.0,372.0,0,0.749,753.6,78.9,17
4013820,32111116723,444.0,533.0,349.0,0,0.751,753.6,78.9,17
4013821,32111124726,409.0,503.0,323.0,0,0.748,753.6,78.9,17
4013822,32111132723,369.0,470.0,295.0,0,0.735,753.6,78.9,17
4013823,32111140724,332.0,437.0,265.0,0,0.718,753.6,78.9,17
4013824,32111148723,298.0,403.0,234.0,0,0.694,753.6,78.9,17
4013825,32111156723,263.0,369.0,202.0,0,0.666,753.6,78.9,17
4013826,32111164725,226.0,334.0,169.0,0,0.637,753.6,78.9,17
4013827,32111172725,200.0,302.0,136.0,0,0.604,753.6,78.9,17
4013828,32111180723,169.0,270.0,103.0,0,0.57,753.6,78.9,17
4013829,32111188725,149.0,240.0,71.0,0,0.535,753.6,78.9,17
4013830,32111196724,127.0,213.0,41.0,0,0.498,753.6,78.9,17
4013831,32111204722,108.0,187.0,12.0,0,0.487,753.6,78.9,17
4013832,32111212723,95.0,165.0,-15.0,0,0.5,753.6,78.9,17
4013833,32111220727,84.0,145.0,-40.0,0,0.513,753.6,78.9,17
4013834,32111228727,74.0,128.0,-62.0,0,0.518,753.6,78.9,17
4013835,32111236724,68.0,114.0,-82.0,0,0.526,753.6,78.9,17
4013836,32111244723,60.0,101.0,-100.0,0,0.532,753.6,78.9,17
4013837,32111252724,56.0,90.0,-115.0,0,0.529,753.6,78.9,17
4013838,32111260727,52.0,81.0,-128.0,0,0.529,753.6,78.9,17
4013839,32111268727,52.0,74.0,-140.0,0,0.535,753.6,78.9,17
4013840,32111276723,51.0,68.0,-149.0,0,0.525,753.6,78.9,17
4013841,32111284723,50.0,64.0,-156.0,0,0.52,753.6,78.9,17
4013842,32111292723,51.0,61.0,-162.0,0,0.519,753.6,78.9,17
4013843,32111300726,50.0,58.0,-167.0,0,0.518,753.6,78.9,17
4013844,32111308725,47.0,55.0,-171.0,0,0.516,753.6,78.9,17
4013845,32111316723,46.0,53.0,-173.0,0,0.506,753.6,78.9,17
4013846,32111324724,41.0,50.0,-176.0,0,0.513,753.6,78.9,17
4013847,32111332723,44.0,49.0,-178.0,0,0.509,753.6,78.9,17
4013848,32111340726,40.0,47.0,-180.0,0,0.51,753.6,78.9,17
4013849,32111348723,38.0,44.0,-181.0,0,0.504,753.6,78.9,17
4013850,32111356723,34.0,42.0,-182.0,0,0.504,753.6,78.9,17
4013851,32111364726,26.0,38.0,-184.0,0,0.511,753.6,78.9,17
4013852,32111372723,25.0,35.0,-186.0,0,0.511,753.6,78.9,17
4013853,32111380723,21.0,32.0,-188.0,0,0.512,753.6,78.9,17
4013854,32111388725,21.0,29.0,-190.0,0,0.513,753.6,78.9,17
4013855,32111396722,22.0,27.0,-191.0,0,0.507,753.6,78.9,17
4013856,32111404724,22.0,26.0,-192.0,0,0.507,753.6,78.9,17
4013857,32111412723,21.0,25.0,-192.0,1,0.5,753.6,78.9,17
4013858,32111420724,18.0,23.0,-193.0,0,0.506,753.6,78.9,17
4013859,32111428724,17.0,22.0,-193.0,1,0.499,753.6,78.9,17
4013860,32111436726,20.0,21.0,-194.0,0,0.505,753.6,78.9,17
4013861,32111444723,19.0,21.0,-193.0,1,0.503,753.6,78.9,17
4013862,32111452726,20.0,21.0,-193.0,1,0.496,753.6,78.9,17
4013863,32111460723,22.0,21.0,-192.0,0,0.5,753.6,78.9,17
4013864,32111468723,25.0,22.0,-191.0,0,0.498,753.6,78.9,17
4013865,32111476723,28.0,23.0,-189.0,0,0.501,753.6,78.9,17
4013866,32111484723,29.0,25.0,-187.0,0,0.498,753.6,78.9,17
4013867,32111492722,33.0,27.0,-185.0,0,0.495,753.6,78.9,17
4013868,32111500723,36.0,29.0,-183.0,0,0.492,753.6,78.9,17
4013869,32111508723,37.0,31.0,-180.0,0,0.494,753.6,78.9,17
4013870,32111516723,45.0,34.0,-177.0,0,0.49,753.6,78.9,17
4013871,32111524723,50.0,38.0,-173.0,0,0.491,753.6,78.9,17
4013872,32111532722,54.0,42.0,-169.0,0,0.486,753.6,78.9,17
4013873,32111540723,59.0,46.0,-164.0,0,0.487,753.6,78.9,17
4013874,32111548728,62.0,50.0,-160.0,0,0.475,753.6,78.9,17
4013875,32111556723,66.0,54.0,-155.0,0,0.476,753.6,78.9,17
4013876,32111564723,72.0,58.0,-151.0,0,0.465,753.6,78.9,17
4013877,32111572723,80.0,64.0,-145.0,0,0.471,753.6,78.9,17
4013878,32111580723,85.0,69.0,-140.0,0,0.459,753.6,78.9,17
4013879,32111588723,96.0,75.0,-134.0,0,0.459,753.6,78.9,17
4013880,32111596723,116.0,85.0,-127.0,0,0.458,753.6,78.9,17
4013881,32111604726,138.0,98.0,-118.0,0,0.462,753.6,78.9,17
4013882,32111612723,169.0,115.0,-106.0,0,0.47,753.6,78.9,17
4013883,32111620723,207.0,137.0,-91.0,0,0.476,753.6,78.9,17
4013884,32111628723,249.0,165.0,-73.0,0,0.478,753.6,78.9,17
4013885,32111636725,302.0,198.0,-50.0,0,0.487,753.6,78.9,17
4013886,32111644723,352.0,235.0,-24.0,0,0.48,753.6,78.9,17
4013887,32111652723,408.0,277.0,7.0,0,0.528,753.6,78.9,17
4013888,32111660723,459.0,321.0,42.0,0,0.577,753.6,78.9,17
4013889,32111668722,508.0,366.0,79.0,0,0.62,753.6,78.9,17
4013890,32111676724,552.0,411.0,118.0,0,0.665,753.6,78.9,17
4013891,32111684725,590.0,455.0,158.0,0,0.707,753.6,78.9,17
4013892,32111692723,623.0,496.0,197.0,0,0.74,753.6,78.9,17
4013893,32111700723,654.0,534.0,236.0,0,0.773,753.6,78.9,17
4013894,32111708723,673.0,568.0,272.0,0,0.79,753.6,78.9,17
4013895,32111716726,684.0,596.0,305.0,0,0.8,753.6,78.9,17
4013896,32111724726,695.0,620.0,335.0,0,0.804,753.6,78.9,17
4013897,32111732724,695.0,638.0,361.0,0,0.797,753.6,78.9,17
4013898,32111740724,683.0,649.0,382.0,0,0.778,753.6,78.9,17
4013899,32111748723,670.0,654.0,397.0,0,0.746,753.6,78.9,17
4013900,32111756724,648.0,653.0,407.0,0,0.717,753.6,78.9,17
4013901,32111764723,623.0,645.0,411.0,0,0.679,753.6,78.9,17
4013902,32111772723,599.0,634.0,410.0,1,0.659,753.6,78.9,17
4013903,32111780723,568.0,618.0,404.0,0,0.685,753.6,78.9,17
4013904,32111788723,539.0,599.0,393.0,0,0.71,753.6,78.9,17
4013905,32111796723,506.0,576.0,379.0,0,0.72,753.6,78.9,17
4013906,32111804726,472.0,551.0,361.0,0,0.733,753.6,78.9,17
4013907,32111812723,438.0,524.0,339.0,0,0.741,753.6,78.9,17
4013908,32111820726,400.0,494.0,315.0,0,0.734,753.6,78.9,17
4013909,32111828725,360.0,461.0,288.0,0,0.728,753.6,78.9,17
4013910,32111836726,322.0,428.0,258.0,0,0.716,753.6,78.9,17
4013911,32111844723,284.0,393.0,227.0,0,0.691,753.6,78.9,17
4013912,32111852723,249.0,358.0,195.0,0,0.664,753.6,78.9,17
4013913,32111860723,212.0,323.0,161.0,0,0.638,753.6,78.9,17
4013914,32111868723,182.0,288.0,128.0,0,0.6,753.6,78.9,17
4013915,32111876726,156.0,256.0,94.0,0,0.57,753.6,78.9,17
4013916,32111884726,127.0,225.0,62.0,0,0.531,753.6,78.9,17
4013917,32111892725,104.0,196.0,30.0,0,0.501,753.6,78.9,17
4013918,32111900723,85.0,169.0,0.0,0,0.498,753.6,78.9,17
4013919,32111908727,68.0,144.0,-28.0,0,0.514,753.6,78.9,17
4013920,32111916726,54.0,122.0,-55.0,0,0.534,753.6,78.9,17
4013921,32111924723,44.0,103.0,-79.0,0,0.541,753.6,78.9,17
4013922,32111932723,40.0,88.0,-100.0,0,0.545,753.6,78.9,17
4013923,32111940723,36.0,75.0,-118.0,0,0.546,753.6,78.9,17
4013924,32111948724,34.0,65.0,-134.0,0,0.55,753.6,78.9,17
4013925,32111956726,31.0,57.0,-147.0,0,0.544,753.6,78.9,17
4013926,32111964724,32.0,51.0,-158.0,0,0.543,753.6,78.9,17
4013927,32111972726,36.0,47.0,-166.0,0,0.532,753.6,78.9,17
4013928,32111980723,37.0,45.0,-173.0,0,0.532,753.6,78.9,17
4013929,32111988723,39.0,43.0,-177.0,0,0.519,753.6,78.9,17
4013930,32111996725,39.0,42.0,-181.0,0,0.522,753.6,78.9,17
4013931,32112004723,39.0,42.0,-183.0,0,0.512,753.6,78.9,17
4013932,32112012724,40.0,41.0,-184.0,0,0.507,753.6,78.9,17
4013933,32112020725,40.0,41.0,-185.0,0,0.508,753.6,78.9,17
4013934,32112028723,40.0,41.0,-185.0,1,0.502,753.6,78.9,17
4013935,32112036723,42.0,41.0,-185.0,0,0.501,753.6,78.9,17
4013936,32112044723,42.0,41.0,-184.0,0,0.505,753.6,78.9,17
4013937,32112052723,40.0,41.0,-183.0,0,0.504,753.6,78.9,17
4013938,32112060723,40.0,41.0,-183.0,1,0.497,753.6,78.9,17
4013939,32112068726,34.0,39.0,-182.0,0,0.501,753.6,78.9,17
4013940,32112076726,38.0,39.0,-181.0,0,0.499,753.6,78.9,17
4013941,32112084723,36.0,38.0,-181.0,1,0.493,753.6,78.9,17
4013942,32112092724,35.0,37.0,-180.0,0,0.496,753.6,78.9,17
4013943,32112100724,36.0,37.0,-180.0,1,0.49,753.6,78.9,17
4013944,32112108727,36.0,37.0,-179.0,0,0.493,753.6,78.9,17
4013945,32112116723,32.0,36.0,-179.0,1,0.487,753.6,78.9,17
4013946,32112124724,31.0,35.0,-178.0,0,0.49,753.6,78.9,17
4013947,32112132725,35.0,35.0,-178.0,1,0.483,753.6,78.9,17
4013948,32112140725,33.0,34.0,-177.0,0,0.487,753.6,78.9,17
4013949,32112148725,38.0,35.0,-176.0,0,0.485,753.6,78.9,17
4013950,32112156724,42.0,37.0,-174.0,0,0.488,753.6,78.9,17
4013951,32112164723,42.0,38.0,-172.0,0,0.485,753.6,78.9,17
4013952,32112172723,46.0,40.0,-170.0,0,0.482,753.6,78.9,17
4013953,32112180726,48.0,42.0,-168.0,0,0.479,753.6,78.9,17
4013954,32112188724,57.0,46.0,-165.0,0,0.481,753.6,78.9,17
4013955,32112196725,59.0,49.0,-161.0,0,0.483,753.6,78.9,17
4013956,32112204723,60.0,52.0,-158.0,0,0.473,753.6,78.9,17
4013957,32112212725,64.0,55.0,-154.0,0,0.474,753.6,78.9,17
4013958,32112220723,70.0,58.0,-150.0,0,0.469,753.6,78.9,17
4013959,32112228725,76.0,63.0,-146.0,0,0.464,753.6,78.9,17
4013960,32112236723,84.0,68.0,-141.0,0,0.464,753.6,78.9,17
4013961,32112244727,81.0,71.0,-137.0,0,0.452,753.6,78.9,17
4013962,32112252726,89.0,75.0,-132.0,0,0.453,753.6,78.9,17
4013963,32112260723,92.0,79.0,-127.0,0,0.447,753.6,78.9,17
4013964,32112268723,95.0,83.0,-122.0,0,0.441,753.6,78.9,17
4013965,32112276727,104.0,88.0,-117.0,0,0.435,753.6,78.9,17
4013966,32112284723,108.0,93.0,-112.0,0,0.429,753.6,78.9,17
4013967,32112292723,109.0,97.0,-107.0,0,0.424,753.6,78.9,17
4013968,32112300723,116.0,102.0,-102.0,0,0.418,753.6,78.9,17
4013969,32112308726,126.0,107.0,-97.0,0,0.413,753.6,78.9,17
4013970,32112316724,138.0,115.0,-91.0,0,0.413,753.6,78.9,17
4013971,32112324725,151.0,124.0,-84.0,0,0.413,753.6,78.9,17
4013972,32112332723,173.0,136.0,-75.0,0,0.417,753.6,78.9,17
4013973,32112340723,199.0,151.0,-65.0,0,0.415,753.6,78.9,17
4013974,32112348724,229.0,170.0,-52.0,0,0.423,753.6,78.9,17
4013975,32112356726,277.0,196.0,-35.0,0,0.434,753.6,78.9,17
4013976,32112364723,324.0,227.0,-14.0,0,0.457,753.6,78.9,17
4013977,32112372724,377.0,263.0,11.0,0,0.503,753.6,78.9,17
4013978,32112380723,432.0,304.0,40.0,0,0.55,753.6,78.9,17
4013979,32112388723,483.0,348.0,73.0,0,0.6,753.6,78.9,17
4013980,32112396723,538.0,394.0,110.0,0,0.652,753.6,78.9,17
4013981,32112404722,586.0,440.0,149.0,0,0.696,753.6,78.9,17
4013982,32112412726,633.0,487.0,189.0,0,0.737,753.6,78.9,17
4013983,32112420726,666.0,530.0,230.0,0,0.775,753.6,78.9,17
4013984,32112428723,696.0,571.0,270.0,0,0.802,753.6,78.9,17
4013985,32112436723,719.0,607.0,308.0,0,0.82,753.6,78.9,17
4013986,32112444723,734.0,637.0,343.0,0,0.829,753.6,78.9,17
4013987,32112452724,743.0,663.0,374.0,0,0.827,753.6,78.9,17
4013988,32112460723,743.0,682.0,402.0,0,0.824,753.6,78.9,17
4013989,32112468727,735.0,695.0,424.0,0,0.8,753.6,78.9,17
4013990,32112476723,722.0,702.0,440.0,0,0.768,753.6,78.9,17
4013991,32112484726,700.0,701.0,451.0,0,0.738,753.6,78.9,17
4013992,32112492723,676.0,695.0,457.0,0,0.707,753.6,78.9,17
4013993,32112500723,649.0,684.0,456.0,1,0.675,753.6,78.9,17
4013994,32112508723,612.0,667.0,450.0,0,0.701,753.6,78.9,17
4013995,32112516724,581.0,646.0,439.0,0,0.727,753.6,78.9,17
4013996,32112524723,540.0,620.0,423.0,0,0.749,753.6,78.9,17
4013997,32112532723,508.0,593.0,403.0,0,0.762,753.6,78.9,17
4013998,32112540726,469.0,563.0,380.0,0,0.765,753.6,78.9,17
4013999,32112548723,428.0,530.0,353.0,0,0.768,753.6,78.9,17
4014000,32112556726,383.0,495.0,324.0,0,0.757,753.6,78.9,17
4014001,32112564724,346.0,459.0,292.0,0,0.745,753.6,78.9,17
4014002,32112572724,306.0,422.0,258.0,0,0.723,753.6,78.9,17
4014003,32112580724,268.0,384.0,223.0,0,0.694,753.6,78.9,17
4014004,32112588723,228.0,346.0,187.0,0,0.663,753.6,78.9,17
4014005,32112596724,191.0,309.0,151.0,0,0.627,753.6,78.9,17
4014006,32112604723,156.0,272.0,114.0,0,0.594,753.6,78.9,17
4014007,32112612723,127.0,237.0,78.0,0,0.556,753.6,78.9,17
4014008,32112620723,100.0,204.0,42.0,0,0.523,753.6,78.9,17
4014009,32112628722,76.0,173.0,9.0,0,0.502,753.6,78.9,17
4014010,32112636723,60.0,145.0,-23.0,0,0.525,753.6,78.9,17
4014011,32112644726,39.0,120.0,-53.0,0,0.544,753.6,78.9,17
4014012,32112652723,28.0,97.0,-80.0,0,0.555,753.6,78.9,17
4014013,32112660723,15.0,77.0,-105.0,0,0.568,753.6,78.9,17
4014014,32112668723,7.0,60.0,-128.0,0,0.58,753.6,78.9,17
4014015,32112676723,3.0,46.0,-147.0,0,0.575,753.6,78.9,17
4014016,32112684723,0.0,35.0,-164.0,0,0.58,753.6,78.9,19
4014017,32112692723,0.0,27.0,-178.0,0,0.575,753.6,78.9,19
4014018,32112700723,0.0,20.0,-190.0,0,0.574,753.6,78.9,19
4014019,32112708726,0.0,15.0,-199.0,0,0.564,753.6,78.9,19
4014020,32112716727,0.0,12.0,-206.0,0,0.558,753.6,78.9,19
4014021,32112724723,0.0,9.0,-211.0,0,0.55,753.6,78.9,19
4014022,32112732722,0.0,7.0,-215.0,0,0.548,753.6,78.9,19
4014023,32112740723,0.0,5.0,-218.0,0,0.544,753.6,78.9,19
4014024,32112748723,0.0,4.0,-220.0,0,0.54,753.6,78.9,19
4014025,32112756723,0.0,3.0,-222.0,0,0.541,753.6,78.9,19
4014026,32112764723,0.0,2.0,-222.0,1,0.529,753.6,78.9,19
4014027,32112772723,1.0,2.0,-223.0,0,0.535,753.6,78.9,17
4014028,32112780724,2.0,2.0,-222.0,1,0.533,753.6,78.9,17
4014029,32112788725,4.0,2.0,-221.0,0,0.531,753.6,78.9,17
4014030,32112796723,4.0,3.0,-220.0,0,0.529,753.6,78.9,17
4014031,32112804726,10.0,5.0,-219.0,0,0.527,753.6,78.9,17
4014032,32112812728,9.0,6.0,-217.0,0,0.53,753.6,78.9,17
4014033,32112820723,8.0,6.0,-215.0,0,0.527,753.6,78.9,17
4014034,32112828724,12.0,8.0,-213.0,0,0.524,753.6,78.9,17
4014035,32112836723,15.0,9.0,-210.0,0,0.526,753.6,78.9,17
4014036,32112844723,16.0,11.0,-208.0,0,0.518,753.6,78.9,17
4014037,32112852727,19.0,13.0,-205.0,0,0.52,753.6,78.9,17
4014038,32112860724,20.0,15.0,-202.0,0,0.516,753.6,78.9,17
4014039,32112868723,25.0,17.0,-199.0,0,0.512,753.6,78.9,17
4014040,32112876723,27.0,20.0,-196.0,0,0.509,753.6,78.9,17
