seq,t_us,rr_ms,hr_bpm,score,flags
54297,434936519,784.0,78.1,0.9,9
54399,435752517,815.0,76.5,0.91,9
54495,436520517,768.0,77.3,0.889,9
54588,437264517,744.0,78.1,0.885,9
54671,437928517,664.0,78.9,0.85,9
54758,438624517,696.0,79.8,0.897,9
54838,439264517,640.0,79.8,0.849,9
54920,439920517,656.0,80.6,0.885,9
55012,440656517,736.0,81.5,0.903,9
55101,441368521,712.0,84.3,0.89,9
55192,442096517,727.0,84.3,0.897,9
55275,442760517,664.0,86.2,0.869,9
55371,443528517,768.0,86.2,0.868,9
55463,444264517,736.0,84.3,0.885,9
55554,444992517,728.0,82.5,0.886,9
55644,445712517,720.0,82.5,0.894,9
55736,446448517,736.0,82.4,0.893,9
55826,447168517,720.0,82.5,0.888,9
55918,447904517,736.0,82.4,0.9,9
56010,448640517,736.0,81.5,0.91,9
56106,449408517,768.0,81.5,0.889,9
56197,450136517,728.0,81.5,0.897,9
56291,450888517,752.0,81.5,0.911,9
56386,451648517,760.0,81.5,0.897,9
56480,452400517,752.0,81.5,0.902,9
56572,453136517,736.0,81.5,0.891,9
56664,453872517,736.0,81.5,0.892,9
56757,454616517,744.0,80.6,0.902,9
56851,455368517,752.0,79.8,0.906,9
56943,456104517,736.0,80.6,0.908,9
57039,456872517,768.0,79.8,0.898,9
57136,457648517,776.0,79.8,0.906,9
57232,458416517,768.0,79.8,0.907,9
57325,459160517,744.0,80.6,0.891,9
57412,459856517,696.0,80.6,0.875,9
57503,460584517,728.0,80.6,0.916,9
57596,461328517,744.0,80.6,0.91,9
57689,462072517,744.0,80.6,0.918,9
57786,462848517,776.0,80.6,0.888,9
57882,463616517,768.0,80.6,0.894,9
57975,464360517,744.0,80.6,0.904,9
58073,465144517,784.0,80.6,0.913,9
58172,465936518,792.0,80.6,0.887,9
58266,466688517,751.0,79.9,0.889,9
58358,467424521,736.0,79.9,0.895,9
58450,468160519,735.0,79.9,0.91,9
58542,468896517,735.0,79.9,0.914,9
58636,469648517,752.0,79.9,0.915,9
58731,470408517,760.0,79.9,0.901,9
58823,471144517,736.0,79.9,0.888,9
58912,471856517,712.0,81.5,0.894,9
59004,472592517,736.0,81.5,0.917,9
59095,473320517,728.0,81.5,0.938,9
59196,474128517,808.0,81.5,0.855,9
59288,474864517,736.0,81.5,0.873,9
59368,475504519,640.0,81.5,0.822,9
59447,476136517,631.0,81.5,0.855,9
59525,476760517,624.0,82.4,0.855,9
59611,477448518,688.0,84.3,0.897,9
59700,478160517,711.0,84.4,0.908,9
59787,478856517,696.0,86.2,0.914,9
59875,479560517,704.0,86.2,0.919,9
59961,480248519,688.0,87.2,0.908,9
60044,480912517,663.0,87.2,0.903,9
60123,481544521,632.0,87.2,0.886,9
60200,482160517,615.0,87.2,0.898,9
60281,482808517,648.0,87.2,0.911,9
60371,483528517,720.0,87.2,0.907,9
60461,484248519,720.0,87.2,0.899,9
60549,484952517,703.0,87.2,0.903,9
60640,485680517,728.0,87.2,0.905,9
60735,486440517,760.0,85.3,0.892,9
60833,487224519,784.0,83.3,0.877,9
60930,488000517,775.0,83.3,0.89,9
61033,488824521,824.0,82.4,0.865,9
61139,489672517,847.0,78.9,0.852,9
61242,490496519,824.0,77.4,0.886,9
61340,491280517,783.0,76.6,0.895,9
61439,492072517,792.0,76.5,0.913,9
61538,492864517,792.0,75.8,0.905,9
61634,493632519,768.0,75.8,0.89,9
61727,494376517,743.0,75.8,0.891,9
61820,495120517,744.0,75.8,0.903,9
61914,495872517,752.0,76.6,0.908,9
62010,496640517,768.0,78.1,0.902,9
62102,497376519,736.0,78.1,0.889,9
62192,498096517,719.0,79.8,0.897,9
62283,498824517,728.0,80.6,0.903,9
62374,499552517,728.0,80.8,0.912,9
62464,500272517,720.0,81.5,0.906,9
62553,500984517,712.0,82.4,0.902,9
62640,501680517,696.0,82.4,0.906,9
62731,502408521,728.0,82.4,0.912,9
62822,503136517,727.0,82.5,0.91,9
62913,503864517,728.0,82.5,0.907,9
63002,504576517,712.0,82.5,0.903,9
63091,505288517,712.0,83.3,0.906,9
63179,505992517,704.0,84.3,0.906,9
63268,506704519,712.0,84.3,0.911,9
63353,507384517,679.0,84.3,0.902,9
63441,508088519,704.0,84.3,0.909,9
63530,508800517,711.0,84.3,0.916,9
63617,509496517,696.0,84.4,0.908,9
63705,510200517,704.0,85.2,0.91,9
63792,510896517,696.0,85.2,0.902,9
63879,511592517,696.0,85.2,0.914,9
63968,512304517,712.0,85.2,0.912,9
64057,513016517,712.0,85.2,0.911,9
64146,513728517,712.0,85.2,0.906,9
64235,514440517,712.0,84.4,0.914,9
64326,515168519,728.0,84.3,0.908,9
64417,515896517,727.0,84.3,0.903,9
64507,516616517,720.0,84.3,0.91,9
64595,517320517,704.0,84.3,0.895,9
64678,517984517,664.0,84.3,0.882,9
64767,518696517,712.0,84.3,0.918,9
64857,519416517,720.0,84.3,0.908,9
64947,520136517,720.0,83.3,0.904,9
65038,520864517,728.0,83.3,0.897,9
65128,521584517,720.0,83.3,0.907,9
65223,522344518,760.0,83.3,0.908,9
65319,523112517,767.0,83.3,0.903,9
65415,523880517,768.0,83.3,0.894,9
65506,524608517,728.0,82.4,0.902,9
65595,525320517,712.0,82.4,0.908,9
65684,526032517,712.0,82.4,0.913,9
65773,526744519,712.0,82.4,0.911,9
65861,527448517,703.0,83.3,0.899,9
65950,528160517,712.0,84.3,0.908,9
66039,528872517,712.0,84.3,0.915,9
66129,529592517,720.0,84.3,0.912,9
66218,530304517,712.0,84.3,0.906,9
66305,531000517,696.0,84.3,0.902,9
66391,531688517,688.0,84.3,0.907,9
66478,532384517,696.0,84.3,0.916,9
66565,533080517,696.0,85.3,0.909,9
66653,533784517,704.0,85.2,0.903,9
66737,534456517,672.0,86.2,0.893,9
66824,535152517,696.0,86.2,0.911,9
66909,535832517,680.0,86.2,0.905,9
66996,536528517,696.0,86.2,0.905,9
67080,537200517,672.0,86.2,0.9,9
67166,537888518,688.0,86.2,0.906,9
67253,538584517,695.0,86.3,0.904,9
67342,539296520,712.0,86.3,0.909,9
67431,540008517,711.0,86.3,0.9,9
67520,540720519,712.0,86.2,0.913,9
67610,541440519,720.0,86.2,0.908,9
67701,542168519,728.0,84.4,0.909,9
67795,542920517,751.0,84.3,0.902,9
67889,543672517,752.0,84.3,0.894,9
67979,544392518,720.0,83.3,0.904,9
68068,545104517,711.0,83.3,0.918,9
68157,545816517,712.0,83.3,0.893,9
68238,546464517,648.0,83.3,0.872,9
68320,547120519,656.0,83.3,0.89,9
68405,547800517,679.0,84.3,0.915,9
68492,548496517,696.0,84.4,0.913,9
68579,549192517,696.0,86.2,0.908,9
68667,549896517,704.0,86.2,0.903,9
68750,550560521,664.0,86.2,0.898,9
68836,551248519,687.0,87.3,0.91,9
68919,551912517,663.0,88.4,0.906,9
69000,552560517,648.0,88.4,0.897,9
69083,553224517,664.0,88.4,0.916,9
69167,553896517,672.0,89.3,0.919,9
69245,554520517,624.0,90.4,0.888,9
69322,555136517,616.0,90.4,0.875,9
69398,555744517,608.0,90.5,0.856,9
69476,556368517,624.0,92.6,0.885,9
69552,556976519,608.0,96.2,0.896,9
69632,557616521,640.0,96.2,0.912,9
69715,558280517,663.0,96.2,0.906,9
69801,558968517,688.0,96.2,0.894,9
69893,559704517,736.0,96.2,0.841,9
69986,560448517,744.0,93.8,0.833,9
70077,561176517,728.0,90.5,0.876,9
70169,561912517,736.0,87.2,0.887,9
70262,562656517,744.0,82.4,0.895,9
70354,563392519,736.0,81.5,0.906,9
70446,564128522,736.0,81.5,0.908,9
70536,564848517,719.0,81.5,0.914,9
70629,565592517,744.0,81.5,0.918,9
70725,566360517,768.0,81.5,0.907,9
70819,567112517,752.0,81.5,0.904,9
70913,567864517,752.0,80.6,0.907,9
71007,568616517,752.0,80.6,0.912,9
71098,569344521,728.0,80.6,0.909,9
71187,570056517,711.0,80.6,0.899,9
71275,570760519,704.0,80.6,0.894,9
71364,571472517,711.0,80.6,0.913,9
71457,572216517,744.0,80.6,0.911,9
71548,572944517,728.0,82.4,0.908,9
71640,573680517,736.0,82.4,0.901,9
71732,574416517,736.0,82.4,0.902,9
71823,575144517,728.0,82.4,0.906,9
71909,575832517,688.0,82.4,0.895,9
71997,576536517,704.0,82.4,0.906,9
72085,577240517,704.0,82.4,0.907,9
72177,577976516,735.0,82.4,0.907,9
72267,578696517,720.0,82.4,0.902,9
72356,579408517,712.0,83.3,0.894,9
72447,580136518,728.0,83.3,0.913,9
72537,580856517,719.0,83.4,0.906,9
72627,581576517,720.0,83.4,0.901,9
72710,582240517,664.0,83.4,0.882,9
72795,582920517,680.0,83.4,0.913,9
72880,583600517,680.0,83.4,0.905,9
72966,584288517,688.0,84.3,0.906,9
73050,584960519,672.0,87.2,0.907,9
73135,585640517,679.0,88.2,0.918,9
73222,586336517,696.0,88.2,0.915,9
73311,587048517,712.0,88.2,0.914,9
73400,587760517,712.0,88.2,0.903,9
73483,588424519,664.0,88.2,0.896,9
73569,589112517,687.0,87.3,0.917,9
73654,589792517,680.0,87.3,0.922,9
73743,590504517,712.0,87.3,0.902,9
73834,591232517,728.0,86.2,0.903,9
73918,591904520,672.0,86.2,0.885,9
74008,592624517,719.0,84.3,0.909,9
74097,593336517,712.0,84.3,0.914,9
74187,594056517,720.0,84.3,0.91,9
74276,594768517,712.0,84.3,0.896,9
74359,595432519,664.0,84.3,0.889,9
74444,596112517,679.0,84.3,0.898,9
74533,596824519,712.0,84.3,0.914,9
74619,597512517,687.0,84.3,0.916,9
74703,598184517,672.0,84.3,0.899,9
74787,598856519,672.0,87.3,0.911,9
74872,599536519,680.0,88.2,0.917,9
74960,600240519,704.0,88.2,0.909,9
75046,600928517,687.0,88.2,0.906,9
75131,601608519,680.0,88.2,0.902,9
75213,602264517,655.0,88.2,0.903,9
75298,602944517,680.0,88.2,0.915,9
75384,603632517,688.0,88.2,0.909,9
75471,604328517,696.0,88.2,0.904,9
75556,605008517,680.0,88.2,0.908,9
75644,605712517,704.0,87.3,0.915,9
75730,606400517,688.0,87.3,0.909,9
75813,607064517,664.0,88.2,0.9,9
75898,607744517,680.0,88.2,0.907,9
75982,608416517,672.0,88.2,0.916,9
76069,609112517,696.0,87.2,0.907,9
76154,609792517,680.0,88.2,0.896,9
76241,610488517,696.0,88.2,0.907,9
76331,611208517,720.0,87.2,0.905,9
76424,611952521,744.0,87.2,0.894,9
76519,612712517,759.0,86.2,0.881,9
76614,613472517,760.0,86.2,0.882,9
76710,614240519,768.0,83.3,0.885,9
76806,615008521,768.0,80.6,0.896,9
76900,615760522,752.0,79.8,0.89,9
76991,616488517,727.0,79.8,0.896,9
77084,617232517,744.0,79.8,0.909,9
77177,617976517,744.0,79.8,0.912,9
77271,618728517,752.0,79.8,0.899,9
77362,619456518,728.0,79.8,0.896,9
77452,620176517,719.0,80.6,0.911,9
77543,620904517,728.0,80.6,0.91,9
77637,621656517,752.0,80.6,0.91,9
77734,622432518,776.0,80.6,0.905,9
77825,623160517,727.0,80.6,0.901,9
77915,623880518,720.0,82.4,0.906,9
78007,624616517,735.0,82.4,0.908,9
78102,625376517,760.0,82.4,0.899,9
78198,626144519,768.0,81.6,0.898,9
78295,626920517,775.0,79.8,0.903,9
78393,627704517,784.0,78.9,0.905,9
78490,628480519,776.0,78.1,0.904,9
78585,629240517,759.0,78.9,0.903,9
78678,629984517,744.0,78.9,0.902,9
78772,630736517,752.0,78.9,0.904,9
78864,631472521,736.0,78.9,0.91,9
78956,632208521,736.0,79.1,0.905,9
79045,632920517,711.0,79.8,0.887,9
79131,633608517,688.0,80.6,0.891,9
79220,634320521,712.0,81.5,0.916,9
79310,635040521,720.0,81.5,0.919,9
79403,635784517,743.0,81.5,0.909,9
79495,636520518,736.0,81.5,0.902,9
79586,637248517,727.0,82.5,0.906,9
79678,637984517,736.0,82.5,0.914,9
79772,638736517,752.0,82.5,0.915,9
79867,639496517,760.0,81.5,0.902,9
79960,640240517,744.0,81.5,0.9,9
80054,640992517,752.0,80.8,0.901,9
80149,641752517,760.0,80.6,0.907,9
80245,642520517,768.0,79.8,0.909,9
80340,643280519,760.0,79.8,0.904,9
80434,644032517,751.0,79.8,0.893,9
80527,644776517,744.0,79.8,0.903,9
80621,645528517,752.0,79.8,0.908,9
80715,646280517,752.0,79.8,0.918,9
80809,647032517,752.0,79.8,0.897,9
80901,647768517,736.0,79.8,0.894,9
80991,648488517,720.0,79.8,0.895,9
81081,649208517,720.0,79.9,0.906,9
81172,649936517,728.0,80.6,0.91,9
81263,650664517,728.0,81.5,0.917,9
81354,651392517,728.0,82.4,0.909,9
81444,652112517,720.0,82.4,0.909,9
81535,652840517,728.0,82.4,0.911,9
81627,653576517,736.0,82.4,0.915,9
81720,654320517,744.0,82.4,0.903,9
81809,655032517,712.0,82.4,0.896,9
81894,655712517,680.0,82.4,0.877,9
81980,656400517,688.0,82.4,0.908,9
82067,657096517,696.0,83.3,0.91,9
82155,657800517,704.0,84.3,0.918,9
82242,658496517,696.0,85.2,0.901,9
82324,659152519,656.0,86.2,0.89,9
82410,659840517,687.0,86.2,0.916,9
82496,660528517,688.0,87.2,0.916,9
82582,661216517,688.0,87.2,0.91,9
82667,661896517,680.0,87.2,0.901,9
82751,662568517,672.0,87.2,0.906,9
82837,663256517,688.0,87.2,0.912,9
82922,663936517,680.0,87.3,0.91,9
83002,664576517,640.0,88.2,0.899,9
83085,665240517,664.0,88.2,0.912,9
83169,665912517,672.0,88.2,0.906,9
83252,666576517,664.0,89.3,0.903,9
83333,667224517,648.0,89.3,0.899,9
83411,667848517,624.0,90.4,0.898,9
83489,668472517,624.0,90.4,0.897,9
83574,669152517,680.0,90.4,0.916,9
83664,669872517,720.0,90.4,0.905,9
83763,670664517,792.0,90.4,0.829,9
83864,671472518,808.0,89.3,0.813,9
83957,672216517,743.0,88.2,0.879,9
84047,672936517,720.0,83.3,0.887,9
84137,673656517,720.0,83.3,0.907,9
84227,674376517,720.0,83.3,0.906,9
84314,675072517,696.0,83.3,0.902,9
84397,675736517,664.0,83.3,0.885,9
84483,676424517,688.0,83.3,0.914,9
84567,677096517,672.0,83.3,0.903,9
84653,677784519,688.0,86.2,0.904,9
84737,678456517,671.0,87.2,0.899,9
84820,679120517,664.0,87.2,0.895,9
84903,679784519,664.0,89.3,0.899,9
84985,680440522,656.0,89.4,0.905,9
85066,681088517,647.0,90.4,0.901,9
85146,681728523,640.0,90.4,0.897,9
85228,682384520,655.0,90.4,0.906,9
85310,683040517,655.0,91.5,0.905,9
85392,683696517,656.0,91.5,0.906,9
85473,684344520,648.0,91.6,0.906,9
85556,685008519,663.0,91.6,0.906,9
85638,685664517,655.0,91.6,0.914,9
85722,686336517,672.0,91.6,0.918,9
85806,687008517,672.0,91.6,0.903,9
85885,687640517,632.0,91.6,0.886,9
85966,688288517,648.0,91.6,0.91,9
86048,688944517,656.0,91.5,0.903,9
86128,689584517,640.0,91.6,0.917,9
86210,690240517,656.0,91.5,0.917,9
86292,690896517,656.0,91.5,0.912,9
86374,691552517,656.0,91.5,0.911,9
86458,692224517,672.0,91.5,0.915,9
86541,692888517,664.0,91.5,0.915,9
86625,693560517,672.0,91.5,0.907,9
86706,694208517,648.0,91.5,0.907,9
86790,694880517,672.0,91.5,0.914,9
86873,695544519,664.0,90.4,0.915,9
86961,696248517,703.0,90.4,0.904,9
87048,696944517,696.0,89.3,0.9,9
87135,697640517,696.0,89.3,0.906,9
87222,698336517,696.0,89.3,0.908,9
87310,699040517,704.0,86.2,0.901,9
87399,699752517,712.0,86.2,0.914,9
87492,700496518,744.0,86.2,0.895,9
87584,701232517,735.0,85.3,0.896,9
87677,701976518,744.0,85.2,0.891,9
87770,702720517,743.0,84.3,0.894,9
87862,703456517,736.0,81.6,0.895,9
87952,704176517,720.0,81.6,0.896,9
88036,704848517,672.0,81.6,0.882,9
88119,705512518,664.0,81.6,0.897,9
88205,706200517,687.0,81.6,0.901,9
88296,706928520,728.0,82.4,0.914,9
88385,707640517,711.0,83.3,0.897,9
88474,708352517,712.0,84.3,0.908,9
88563,709064517,712.0,84.3,0.898,9
88651,709768522,704.0,84.4,0.907,9
88734,710432517,663.0,85.2,0.896,9
88815,711080517,648.0,85.2,0.899,9
88900,711760517,680.0,85.2,0.907,9
88989,712472517,712.0,84.4,0.915,9
89078,713184522,712.0,84.4,0.914,9
89167,713896517,711.0,84.4,0.906,9
89258,714624519,728.0,84.4,0.904,9
89352,715376521,752.0,84.4,0.9,9
89442,716096518,719.0,84.3,0.898,9
89529,716792517,695.0,84.3,0.89,9
89620,717520517,728.0,84.3,0.903,9
89713,718264517,744.0,83.4,0.912,9
89808,719024517,760.0,82.4,0.888,9
89900,719760517,736.0,82.4,0.883,9
89983,720424518,664.0,82.4,0.899,9
90063,721064519,640.0,82.4,0.848,9
90141,721688517,623.0,83.4,0.829,9
90218,722304517,616.0,86.3,0.826,9
90295,722920517,616.0,90.4,0.86,9
90376,723568517,648.0,92.6,0.92,9
90462,724256517,688.0,92.6,0.9,9
90545,724920517,664.0,92.6,0.846,9
90623,725544517,624.0,93.8,0.876,9
90700,726160517,616.0,96.2,0.843,9
90776,726768517,608.0,96.3,0.851,9
90849,727352519,584.0,97.4,0.848,9
90920,727920518,567.0,97.4,0.872,9
90991,728488517,567.0,97.4,0.899,9
91063,729064517,576.0,98.7,0.914,9
91139,729672517,608.0,98.7,0.932,9
91217,730296519,624.0,98.7,0.913,9
91297,730936517,639.0,98.7,0.907,9
91375,731560517,624.0,98.7,0.899,9
91452,732176517,616.0,98.7,0.913,9
91507,732616517,440.0,98.7,0.453,9
91572,733136517,520.0,98.7,0.591,9
91658,733824517,688.0,97.4,0.612,9
91745,734520517,696.0,96.2,0.616,9
91835,735240517,720.0,96.2,0.592,9
91923,735944517,704.0,93.9,0.618,9
92013,736664517,720.0,87.2,0.614,9
92098,737344518,680.0,87.2,0.637,9
92185,738040517,695.0,86.3,0.646,9
92267,738696518,656.0,86.3,0.653,9
92349,739352517,655.0,86.3,0.646,9
92437,740056517,704.0,86.2,0.636,9
92520,740720519,664.0,86.3,0.66,9
92606,741408519,688.0,87.2,0.655,9
92695,742120517,711.0,87.2,0.635,9
92780,742800517,680.0,88.2,0.656,9
92862,743456517,656.0,88.2,0.704,9
92924,743952517,496.0,90.4,0.735,9
93015,744680517,728.0,88.2,0.886,9
93103,745384517,704.0,87.2,0.901,9
93194,746112517,728.0,87.2,0.907,9
93287,746856517,744.0,85.2,0.901,9
93383,747624518,768.0,84.4,0.883,9
93480,748400519,776.0,82.4,0.877,9
93576,749168517,767.0,82.4,0.883,9
93672,749936521,768.0,80.6,0.88,9
93764,750672517,735.0,80.6,0.892,9
93855,751400517,728.0,80.6,0.903,9
93944,752112517,712.0,80.6,0.906,9
94033,752824517,712.0,80.6,0.905,9
94122,753536517,712.0,81.6,0.905,9
94209,754232517,696.0,82.4,0.896,9
94297,754936519,704.0,84.3,0.899,9
94379,755592517,655.0,84.3,0.881,9
94465,756280517,688.0,84.3,0.914,9
94552,756976517,696.0,85.2,0.917,9
94640,757680517,704.0,85.2,0.903,9
94728,758384517,704.0,85.2,0.906,9
94819,759112517,728.0,85.2,0.906,9
94913,759864517,752.0,85.2,0.897,9
95007,760616520,752.0,85.2,0.891,9
95097,761336517,719.0,85.2,0.905,9
95184,762032517,696.0,85.2,0.909,9
95271,762728517,696.0,85.2,0.907,9
95358,763424517,696.0,85.2,0.901,9
95438,764064517,640.0,85.2,0.869,9
95521,764728521,664.0,86.2,0.917,9
95606,765408517,679.0,86.2,0.917,9
95686,766048517,640.0,86.2,0.901,9
95770,766720517,672.0,88.4,0.894,9
95849,767352517,632.0,89.3,0.88,9
95929,767992517,640.0,90.4,0.893,9
96010,768640517,648.0,92.6,0.911,9
96093,769304517,664.0,92.6,0.914,9
96177,769976521,672.0,90.4,0.912,9
96263,770664517,687.0,90.4,0.899,9
96343,771304517,640.0,92.6,0.897,9
96427,771976517,672.0,90.4,0.904,9
96512,772656517,680.0,90.4,0.904,9
96598,773344517,688.0,89.3,0.907,9
96686,774048517,704.0,89.3,0.895,9
96771,774728517,680.0,88.2,0.899,9
96852,775376517,648.0,88.2,0.896,9
96935,776040517,664.0,88.2,0.911,9
97014,776672517,632.0,89.3,0.907,9
97095,777320517,648.0,89.3,0.893,9
97171,777928517,608.0,90.4,0.862,9
97246,778528517,600.0,92.6,0.87,9
97320,779120519,592.0,92.6,0.884,9
97399,779752517,631.0,94.9,0.92,9
97484,780432517,680.0,94.9,0.894,9
97573,781144517,712.0,94.9,0.876,9
97666,781888517,744.0,94.9,0.84,9
97758,782624517,736.0,92.6,0.848,9
97849,783352517,728.0,88.2,0.876,9
97943,784104517,752.0,84.3,0.891,9
98042,784896517,792.0,82.4,0.876,9
98142,785696518,800.0,81.5,0.884,9
98239,786472517,775.0,80.6,0.89,9
98332,787216517,744.0,80.6,0.901,9
98426,787968517,752.0,79.8,0.897,9
98516,788688517,720.0,79.8,0.896,9
98602,789376517,688.0,79.8,0.883,9
98688,790064517,688.0,79.8,0.894,9
98773,790744517,680.0,80.6,0.888,9
98858,791424517,680.0,83.3,0.895,9
98938,792064517,640.0,87.2,0.872,9
99021,792728517,664.0,87.2,0.917,9
99100,793360518,632.0,88.2,0.9,9
99185,794040517,679.0,88.2,0.92,9
99271,794728517,688.0,88.2,0.901,9
99352,795376517,648.0,88.4,0.901,9
99434,796032517,656.0,90.4,0.917,9
99517,796696517,664.0,90.4,0.919,9
99602,797376517,680.0,90.4,0.92,9
99688,798064517,688.0,90.4,0.908,9
99772,798736517,672.0,89.3,0.901,9
99853,799384521,648.0,89.3,0.901,9
99938,800064517,679.0,89.3,0.91,9
100018,800704517,640.0,90.4,0.898,9
100099,801352518,648.0,90.4,0.907,9
100177,801976517,623.0,90.4,0.899,9
100259,802632517,656.0,91.5,0.916,9
100341,803288517,656.0,91.5,0.907,9
100423,803944517,656.0,91.5,0.905,9
100505,804600517,656.0,91.5,0.897,9
100584,805232517,632.0,91.5,0.896,9
100667,805896517,664.0,91.5,0.911,9
100750,806560517,664.0,91.5,0.908,9
100833,807224517,664.0,91.5,0.923,9
100911,807848517,624.0,91.5,0.891,9
100990,808480517,632.0,91.5,0.901,9
101071,809128517,648.0,91.5,0.909,9
101153,809784517,656.0,91.5,0.907,9
101236,810448517,664.0,91.5,0.902,9
101322,811136517,688.0,90.4,0.899,9
101408,811824517,688.0,90.4,0.906,9
101494,812512517,688.0,90.4,0.915,9
101583,813224517,712.0,90.4,0.901,9
101676,813968517,744.0,87.2,0.877,9
101768,814704517,736.0,87.2,0.891,9
101857,815416517,712.0,87.2,0.889,9
101945,816120521,704.0,85.2,0.905,9
102033,816824517,703.0,85.2,0.914,9
102121,817528517,704.0,85.2,0.908,9
102207,818216518,688.0,85.2,0.903,9
102289,818872517,655.0,85.2,0.885,9
102370,819520517,648.0,85.2,0.9,9
102452,820176519,656.0,85.3,0.909,9
102535,820840517,663.0,87.2,0.905,9
102621,821528517,688.0,87.2,0.908,9
102708,822224519,696.0,87.2,0.9,9
102794,822912517,687.0,87.3,0.9,9
102880,823600518,688.0,87.3,0.914,9
102968,824304517,703.0,87.3,0.909,9
103056,825008521,704.0,87.2,0.906,9
103146,825728521,720.0,87.2,0.897,9
103233,826424518,695.0,86.3,0.896,9
103317,827096517,671.0,86.3,0.901,9
103406,827808521,712.0,86.2,0.918,9
103496,828528517,719.0,85.3,0.901,9
103587,829256517,728.0,85.2,0.91,9
103672,829936517,680.0,85.2,0.736,9
103750,830560517,624.0,85.2,0.854,9
103835,831240517,680.0,86.3,0.909,9
103916,831888519,648.0,88.2,0.92,9
104000,832560517,671.0,88.2,0.93,9
104081,833208518,648.0,88.2,0.903,9
104168,833904517,695.0,88.2,0.916,9
104257,834616517,712.0,88.2,0.908,9
104347,835336517,720.0,88.2,0.905,9
104439,836072517,736.0,88.2,0.892,9
104533,836824517,752.0,86.3,0.886,9
104626,837568517,744.0,84.3,0.896,9
104717,838296517,728.0,83.3,0.908,9
104806,839008518,712.0,83.3,0.903,9
104889,839672517,663.0,83.3,0.873,9
104976,840368517,696.0,83.3,0.917,9
105061,841048517,680.0,83.3,0.882,9
105146,841728517,680.0,84.3,0.904,9
105228,842384517,656.0,86.2,0.89,9
105306,843008517,624.0,88.2,0.883,9
105389,843672517,664.0,88.2,0.925,9
105475,844360517,688.0,88.2,0.902,9
105560,845040517,680.0,88.2,0.905,9
105645,845720517,680.0,88.2,0.888,9
105729,846392517,672.0,88.2,0.912,9
105816,847088518,696.0,88.2,0.909,9
105902,847776517,687.0,88.2,0.9,9
105982,848416517,640.0,88.2,0.88,9
106064,849072517,656.0,88.2,0.904,9
106148,849744517,672.0,88.2,0.917,9
106235,850440519,696.0,88.2,0.915,9
106321,851128517,687.0,88.2,0.909,9
106408,851824517,696.0,87.3,0.907,9
106489,852472517,648.0,87.3,0.889,9
106568,853104517,632.0,89.3,0.888,9
106651,853768519,664.0,90.4,0.915,9
106732,854416517,647.0,90.4,0.907,9
106812,855056518,640.0,90.4,0.894,9
106889,855672517,615.0,92.6,0.888,9
106968,856304517,632.0,92.7,0.904,9
107051,856968517,664.0,92.7,0.907,9
107135,857640517,672.0,92.7,0.904,9
107219,858312517,672.0,92.7,0.917,9
107304,858992517,680.0,90.4,0.875,9
107382,859616517,624.0,92.7,0.899,9
107464,860272517,656.0,91.5,0.907,9
107547,860936517,664.0,90.4,0.898,9
107624,861552517,616.0,90.4,0.864,9
107698,862144517,592.0,90.4,0.85,9
107772,862736517,592.0,91.5,0.853,9
107843,863304517,568.0,96.2,0.844,9
107914,863872517,568.0,97.4,0.89,9
107985,864440517,568.0,101.4,0.9,9
108060,865040517,600.0,101.4,0.906,9
108138,865664518,624.0,101.4,0.894,9
108220,866320518,656.0,101.4,0.87,9
108304,866992517,671.0,101.4,0.864,9
108388,867664517,672.0,100.0,0.866,9
108474,868352517,688.0,96.2,0.87,9
108557,869016518,664.0,91.5,0.908,9
108646,869728517,711.0,90.4,0.877,9
108732,870416517,688.0,89.4,0.886,9
108817,871096517,680.0,89.3,0.899,9
108902,871776517,680.0,88.2,0.912,9
108987,872456517,680.0,88.2,0.919,9
109073,873144517,688.0,88.2,0.909,9
109154,873792517,648.0,88.2,0.884,9
109235,874440517,648.0,88.2,0.892,9
109317,875096517,656.0,88.2,0.909,9
109401,875768517,672.0,88.2,0.917,9
109486,876448517,680.0,88.2,0.914,9
109574,877152517,704.0,88.2,0.898,9
109656,877808517,656.0,89.3,0.88,9
109735,878440517,632.0,91.5,0.888,9
109817,879096517,656.0,91.5,0.911,9
109899,879752517,656.0,91.5,0.918,9
109983,880424517,672.0,91.5,0.906,9
110065,881080521,656.0,91.5,0.905,9
110150,881760517,679.0,91.5,0.9,9
110236,882448517,688.0,91.5,0.907,9
110324,883152517,704.0,91.5,0.895,9
110414,883872517,720.0,89.3,0.877,9
110504,884592517,720.0,88.4,0.875,9
110591,885288517,696.0,87.2,0.892,9
110681,886008517,720.0,86.2,0.898,9
110772,886736517,728.0,85.2,0.902,9
110863,887464517,728.0,83.3,0.898,9
110952,888176517,712.0,83.3,0.896,9
111037,888856517,680.0,83.3,0.893,9
111119,889512519,656.0,83.3,0.887,9
111205,890200519,688.0,84.3,0.912,9
111285,890840517,639.0,86.2,0.875,9
111368,891504518,664.0,87.2,0.905,9
111450,892160517,655.0,88.2,0.904,9
111535,892840517,680.0,88.2,0.918,9
111621,893528517,688.0,88.2,0.904,9
111705,894200517,672.0,89.3,0.897,9
111785,894840517,640.0,90.4,0.891,9
111871,895528517,688.0,89.3,0.916,9
111958,896224517,696.0,89.3,0.907,9
112046,896928519,704.0,88.2,0.898,9
112133,897624518,695.0,87.2,0.89,9
112219,898312517,687.0,87.2,0.9,9
112306,899008517,696.0,87.2,0.915,9
112391,899688517,680.0,87.2,0.891,9
112470,900320517,632.0,87.2,0.876,9
112549,900952518,632.0,87.2,0.89,9
112632,901616517,663.0,87.3,0.919,9
112716,902288517,672.0,88.2,0.91,9
112800,902960519,672.0,89.3,0.898,9
112879,903592517,631.0,89.3,0.877,9
112965,904280517,688.0,89.3,0.906,9
113052,904976517,696.0,89.3,0.913,9
113139,905672517,696.0,89.3,0.899,9
113225,906360517,688.0,89.3,0.896,9
113306,907008518,648.0,89.3,0.897,9
113391,907688517,679.0,88.4,0.92,9
113477,908376517,688.0,87.2,0.91,9
113562,909056517,680.0,87.2,0.911,9
113649,909752517,696.0,87.2,0.896,9
113731,910408519,656.0,87.2,0.896,9
113816,911088517,679.0,88.2,0.911,9
113903,911784517,696.0,88.2,0.911,9
113991,912488517,704.0,88.2,0.914,9
114080,913200517,712.0,87.2,0.903,9
114167,913896517,696.0,86.2,0.912,9
114254,914592517,696.0,86.2,0.901,9
114342,915296517,704.0,86.2,0.909,9
114431,916008517,712.0,86.2,0.902,9
114517,916696517,688.0,86.2,0.903,9
114604,917392517,696.0,86.2,0.906,9
114694,918112517,720.0,85.2,0.899,9
114780,918800517,688.0,86.2,0.907,9
114859,919432517,632.0,86.2,0.866,9
114938,920064517,632.0,86.2,0.889,9
115020,920720517,656.0,87.2,0.904,9
115102,921376517,656.0,87.2,0.898,9
115185,922040517,664.0,90.4,0.903,9
115268,922704517,664.0,90.4,0.885,9
115347,923336517,632.0,91.5,0.876,9
115430,924000517,664.0,91.5,0.903,9
115512,924656517,656.0,91.5,0.894,9
115589,925272517,616.0,91.5,0.874,9
115665,925880517,608.0,91.5,0.886,9
115740,926480517,600.0,91.5,0.878,9
115819,927112517,632.0,94.9,0.909,9
115897,927736517,624.0,94.9,0.902,9
115977,928376517,640.0,94.9,0.895,9
116057,929016518,640.0,94.9,0.9,9
116139,929672517,655.0,94.9,0.9,9
116224,930352517,680.0,94.9,0.902,9
116311,931048517,696.0,93.8,0.889,9
116396,931728519,680.0,93.8,0.902,9
116482,932416517,687.0,91.6,0.889,9
116568,933104517,688.0,88.2,0.91,9
116655,933800517,696.0,88.2,0.915,9
116744,934512517,712.0,87.3,0.902,9
116830,935200517,688.0,87.2,0.896,9
116919,935912517,712.0,87.2,0.9,9
117008,936624517,712.0,86.2,0.897,9
117099,937352518,728.0,86.2,0.902,9
117188,938064518,712.0,84.3,0.892,9
117275,938760517,695.0,84.3,0.882,9
117357,939416518,656.0,84.3,0.876,9
117442,940096517,679.0,84.3,0.906,9
117524,940752517,656.0,86.3,0.898,9
117608,941424517,672.0,86.3,0.909,9
117686,942048517,624.0,88.4,0.857,9
117767,942696517,648.0,89.3,0.904,9
117846,943328517,632.0,91.5,0.888,9
117928,943984517,656.0,91.5,0.904,9
118010,944640517,656.0,91.5,0.904,9
118093,945304517,664.0,91.5,0.907,9
118177,945976517,672.0,91.5,0.899,9
118261,946648517,672.0,91.5,0.902,9
118345,947320517,672.0,91.5,0.908,9
118425,947960517,640.0,91.5,0.888,9
118504,948592522,632.0,91.5,0.907,9
118589,949272517,679.0,90.4,0.901,9
118674,949952517,680.0,89.3,0.911,9
118760,950640517,688.0,89.3,0.906,9
118846,951328517,688.0,89.3,0.906,9
118932,952016517,688.0,88.4,0.908,9
