seq,t_us,raw,avg,filtered,candidate,detector_score,expected_rr_ms,hr_bpm,flags
80214,642272517,96.0,89.0,-78.0,0,0.47,747.2,80.6,1
80215,642280517,99.0,92.0,-75.0,0,0.464,747.2,80.6,1
80216,642288517,99.0,93.0,-72.0,0,0.459,747.2,80.6,1
80217,642296517,102.0,96.0,-70.0,0,0.443,747.2,80.6,1
80218,642304521,105.0,98.0,-67.0,0,0.449,747.2,80.6,1
80219,642312518,105.0,100.0,-64.0,0,0.444,747.2,80.6,1
80220,642320516,107.0,101.0,-62.0,0,0.428,747.2,80.6,1
80221,642328518,111.0,104.0,-60.0,0,0.425,747.2,80.6,1
80222,642336517,115.0,106.0,-57.0,0,0.431,747.2,80.6,1
80223,642344517,127.0,111.0,-53.0,0,0.436,747.2,80.6,1
80224,642352520,136.0,117.0,-49.0,0,0.429,747.2,80.6,1
80225,642360517,152.0,126.0,-44.0,0,0.432,747.2,80.6,1
80226,642368517,171.0,137.0,-37.0,0,0.444,747.2,80.6,1
80227,642376517,194.0,151.0,-28.0,0,0.453,747.2,80.6,1
80228,642384517,224.0,168.0,-16.0,0,0.467,747.2,80.6,1
80229,642392517,249.0,188.0,-2.0,0,0.483,747.2,80.6,1
80230,642400517,282.0,211.0,14.0,0,0.528,747.2,80.6,1
80231,642408517,310.0,235.0,32.0,0,0.575,747.2,80.6,1
80232,642416517,342.0,261.0,52.0,0,0.625,747.2,80.6,1
80233,642424517,371.0,288.0,74.0,0,0.677,747.2,80.6,1
80234,642432517,397.0,314.0,97.0,0,0.723,747.2,80.6,1
80235,642440517,419.0,339.0,121.0,0,0.767,747.2,80.6,1
80236,642448519,435.0,363.0,143.0,0,0.79,747.2,80.6,1
80237,642456517,446.0,383.0,165.0,0,0.818,747.2,80.6,1
80238,642464517,457.0,401.0,185.0,0,0.827,747.2,80.6,1
80239,642472517,461.0,415.0,203.0,0,0.83,747.2,80.6,1
80240,642480521,466.0,428.0,219.0,0,0.826,747.2,80.6,1
80241,642488517,460.0,436.0,232.0,0,0.806,747.2,80.6,1
80242,642496517,453.0,440.0,243.0,0,0.792,747.2,80.6,1
80243,642504517,446.0,441.0,250.0,0,0.75,747.2,80.6,1
80244,642512517,432.0,439.0,254.0,0,0.716,747.2,80.6,1
80245,642520517,419.0,434.0,255.0,0,0.682,747.2,80.6,1
80246,642528517,400.0,426.0,252.0,1,0.7,747.2,80.6,1
80247,642536517,379.0,415.0,247.0,0,0.717,747.2,80.6,1
80248,642544517,359.0,401.0,239.0,0,0.744,747.2,80.6,1
80249,642552519,336.0,385.0,229.0,0,0.756,753.6,79.8,1
80250,642560517,314.0,368.0,216.0,0,0.773,753.6,79.8,1
80251,642568517,289.0,349.0,201.0,0,0.774,753.6,79.8,1
80252,642576517,266.0,329.0,184.0,0,0.769,753.6,79.8,1
80253,642584517,241.0,307.0,166.0,0,0.751,753.6,79.8,1
80254,642592517,215.0,285.0,146.0,0,0.733,753.6,79.8,1
80255,642600517,196.0,263.0,126.0,0,0.699,753.6,79.8,1
80256,642608517,173.0,242.0,105.0,0,0.668,753.6,79.8,1
80257,642616521,156.0,221.0,84.0,0,0.63,753.6,79.8,1
80258,642624517,141.0,201.0,64.0,0,0.587,753.6,79.8,1
80259,642632517,123.0,182.0,43.0,0,0.557,753.6,79.8,1
80260,642640517,110.0,165.0,24.0,0,0.512,753.6,79.8,1
80261,642648517,100.0,149.0,6.0,0,0.505,753.6,79.8,1
80262,642656519,89.0,135.0,-11.0,0,0.524,753.6,79.8,1
80263,642664517,85.0,123.0,-27.0,0,0.542,753.6,79.8,1
80264,642672517,77.0,112.0,-41.0,0,0.548,753.6,79.8,1
80265,642680521,77.0,103.0,-53.0,0,0.549,753.6,79.8,1
80266,642688517,72.0,96.0,-64.0,0,0.558,753.6,79.8,1
80267,642696517,72.0,90.0,-73.0,0,0.553,753.6,79.8,1
80268,642704517,72.0,86.0,-80.0,0,0.543,753.6,79.8,1
80269,642712518,70.0,82.0,-87.0,0,0.555,753.6,79.8,1
80270,642720517,70.0,79.0,-92.0,0,0.541,753.6,79.8,1
80271,642728517,73.0,77.0,-96.0,0,0.536,753.6,79.8,1
80272,642736517,70.0,76.0,-99.0,0,0.529,753.6,79.8,1
80273,642744517,70.0,74.0,-101.0,0,0.521,753.6,79.8,1
80274,642752517,72.0,74.0,-103.0,0,0.523,753.6,79.8,1
80275,642760519,71.0,73.0,-104.0,0,0.514,753.6,79.8,1
80276,642768519,69.0,72.0,-105.0,0,0.514,753.6,79.8,1
80277,642776519,67.0,71.0,-106.0,0,0.515,753.6,79.8,1
80278,642784519,68.0,70.0,-106.0,1,0.504,753.6,79.8,1
80279,642792517,66.0,69.0,-107.0,0,0.514,753.6,79.8,1
80280,642800517,62.0,67.0,-107.0,1,0.503,753.6,79.8,1
80281,642808517,66.0,67.0,-108.0,0,0.514,753.6,79.8,1
80282,642816517,65.0,67.0,-108.0,1,0.503,753.6,79.8,1
80283,642824517,65.0,66.0,-108.0,0,0.502,753.6,79.8,1
80284,642832517,62.0,65.0,-108.0,0,0.501,753.6,79.8,1
80285,642840517,62.0,64.0,-108.0,0,0.5,753.6,79.8,1
80286,642848517,59.0,63.0,-108.0,0,0.499,753.6,79.8,1
80287,642856517,61.0,63.0,-108.0,0,0.498,753.6,79.8,1
80288,642864517,61.0,62.0,-108.0,0,0.497,753.6,79.8,1
80289,642872517,60.0,62.0,-108.0,0,0.496,753.6,79.8,1
80290,642880519,60.0,61.0,-108.0,0,0.495,753.6,79.8,1
80291,642888517,60.0,61.0,-108.0,0,0.494,753.6,79.8,1
80292,642896517,60.0,61.0,-108.0,0,0.493,753.6,79.8,1
80293,642904519,61.0,61.0,-107.0,0,0.5,753.6,79.8,1
80294,642912517,60.0,61.0,-107.0,1,0.489,753.6,79.8,1
80295,642920517,66.0,62.0,-106.0,0,0.496,753.6,79.8,1
80296,642928517,68.0,63.0,-105.0,0,0.494,753.6,79.8,1
80297,642936517,68.0,65.0,-103.0,0,0.501,755.2,79.8,1
80298,642944518,72.0,66.0,-102.0,0,0.487,755.2,79.8,1
80299,642952517,73.0,68.0,-100.0,0,0.494,755.2,79.8,1
80300,642960521,76.0,70.0,-98.0,0,0.49,755.2,79.8,1
80301,642968521,76.0,71.0,-96.0,0,0.486,755.2,79.8,1
80302,642976517,79.0,73.0,-93.0,0,0.492,755.2,79.8,1
80303,642984518,84.0,76.0,-91.0,0,0.477,755.2,79.8,1
80304,642992517,84.0,78.0,-88.0,0,0.483,755.2,79.8,1
80305,643000517,88.0,80.0,-86.0,0,0.467,755.2,79.8,1
80306,643008517,89.0,82.0,-83.0,0,0.474,755.2,79.8,1
80307,643016517,88.0,84.0,-81.0,0,0.458,755.2,79.8,1
80308,643024517,88.0,85.0,-79.0,0,0.455,755.2,79.8,1
80309,643032517,89.0,86.0,-77.0,0,0.451,755.2,79.8,1
80310,643040517,92.0,87.0,-75.0,0,0.447,755.2,79.8,1
80311,643048521,93.0,89.0,-73.0,0,0.444,755.2,79.8,1
80312,643056517,96.0,90.0,-71.0,0,0.44,755.2,79.8,1
80313,643064517,99.0,93.0,-69.0,0,0.437,755.2,79.8,1
80314,643072517,98.0,94.0,-67.0,0,0.433,755.2,79.8,1
80315,643080517,101.0,96.0,-65.0,0,0.43,755.2,79.8,1
80316,643088517,105.0,98.0,-62.0,0,0.436,755.2,79.8,1
80317,643096517,110.0,101.0,-60.0,0,0.421,755.2,79.8,1
80318,643104517,116.0,104.0,-57.0,0,0.427,755.2,79.8,1
80319,643112517,123.0,109.0,-53.0,0,0.432,755.2,79.8,1
80320,643120517,136.0,116.0,-49.0,0,0.425,755.2,79.8,1
80321,643128517,151.0,124.0,-43.0,0,0.439,755.2,79.8,1
80322,643136517,169.0,135.0,-36.0,0,0.439,755.2,79.8,1
80323,643144517,196.0,150.0,-27.0,0,0.448,755.2,79.8,1
80324,643152521,218.0,166.0,-15.0,0,0.462,755.2,79.8,1
80325,643160517,247.0,186.0,-2.0,0,0.471,755.2,79.8,1
80326,643168517,276.0,208.0,14.0,0,0.524,755.2,79.8,1
80327,643176517,305.0,231.0,32.0,0,0.571,755.2,79.8,1
80328,643184519,335.0,256.0,52.0,0,0.619,755.2,79.8,1
80329,643192517,358.0,281.0,73.0,0,0.663,755.2,79.8,1
80330,643200517,381.0,305.0,95.0,0,0.706,755.2,79.8,1
80331,643208517,402.0,329.0,116.0,0,0.735,755.2,79.8,1
80332,643216517,416.0,350.0,138.0,0,0.773,755.2,79.8,1
80333,643224517,429.0,369.0,158.0,0,0.788,755.2,79.8,1
80334,643232521,436.0,385.0,177.0,0,0.803,755.2,79.8,1
80335,643240517,444.0,400.0,194.0,0,0.805,755.2,79.8,1
80336,643248517,443.0,410.0,208.0,0,0.79,755.2,79.8,1
80337,643256518,439.0,417.0,220.0,0,0.779,755.2,79.8,1
80338,643264521,432.0,421.0,229.0,0,0.753,755.2,79.8,1
80339,643272517,421.0,421.0,235.0,0,0.722,755.2,79.8,1
80340,643280519,412.0,419.0,239.0,0,0.701,755.2,79.8,1
80341,643288517,396.0,413.0,239.0,1,0.656,755.2,79.8,1
80342,643296519,378.0,405.0,236.0,0,0.684,755.2,79.8,1
80343,643304517,362.0,394.0,231.0,0,0.7,755.2,79.8,1
80344,643312517,337.0,380.0,223.0,0,0.725,755.2,79.8,1
80345,643320517,318.0,365.0,212.0,0,0.745,755.2,79.8,1
80346,643328517,295.0,348.0,200.0,0,0.741,755.2,79.8,1
80347,643336517,272.0,330.0,185.0,0,0.75,755.2,79.8,1
80348,643344517,252.0,311.0,169.0,0,0.736,755.2,79.8,1
80349,643352517,227.0,291.0,152.0,0,0.718,755.2,79.8,1
80350,643360517,209.0,271.0,133.0,0,0.703,755.2,79.8,1
80351,643368517,188.0,251.0,114.0,0,0.67,755.2,79.8,1
80352,643376517,167.0,230.0,95.0,0,0.636,755.2,79.8,1
80353,643384517,154.0,212.0,76.0,0,0.602,755.2,79.8,1
80354,643392517,139.0,194.0,57.0,0,0.569,755.2,79.8,1
80355,643400519,125.0,177.0,39.0,0,0.531,755.2,79.8,1
80356,643408517,114.0,162.0,21.0,0,0.502,755.2,79.8,1
80357,643416517,108.0,149.0,5.0,0,0.486,755.2,79.8,1
80358,643424517,104.0,138.0,-9.0,0,0.49,755.2,79.8,1
80359,643432517,97.0,128.0,-22.0,0,0.501,755.2,79.8,1
80360,643440517,94.0,120.0,-34.0,0,0.511,755.2,79.8,1
80361,643448517,93.0,113.0,-44.0,0,0.507,755.2,79.8,1
80362,643456517,92.0,108.0,-52.0,0,0.499,755.2,79.8,1
80363,643464517,93.0,104.0,-59.0,0,0.5,755.2,79.8,1
80364,643472517,92.0,101.0,-65.0,0,0.499,755.2,79.8,1
80365,643480517,96.0,100.0,-69.0,0,0.484,755.2,79.8,1
80366,643488517,96.0,99.0,-73.0,0,0.49,755.2,79.8,1
80367,643496517,99.0,99.0,-75.0,0,0.471,755.2,79.8,1
80368,643504517,100.0,99.0,-76.0,0,0.461,755.2,79.8,1
80369,643512517,98.0,99.0,-77.0,0,0.462,755.2,79.8,1
80370,643520517,100.0,99.0,-77.0,1,0.451,755.2,79.8,1
80371,643528517,98.0,99.0,-78.0,0,0.462,755.2,79.8,1
80372,643536517,97.0,98.0,-78.0,1,0.451,755.2,79.8,1
80373,643544517,97.0,98.0,-78.0,0,0.45,755.2,79.8,1
80374,643552517,93.0,97.0,-78.0,0,0.449,755.2,79.8,1
80375,643560517,92.0,96.0,-78.0,0,0.448,755.2,79.8,1
80376,643568517,91.0,95.0,-79.0,0,0.459,755.2,79.8,1
80377,643576517,84.0,92.0,-80.0,0,0.46,755.2,79.8,1
80378,643584519,86.0,91.0,-81.0,0,0.46,755.2,79.8,1
80379,643592517,84.0,89.0,-82.0,0,0.461,755.2,79.8,1
80380,643600517,83.0,88.0,-82.0,1,0.45,755.2,79.8,1
80381,643608517,80.0,86.0,-83.0,0,0.461,755.2,79.8,1
80382,643616517,79.0,84.0,-84.0,0,0.462,755.2,79.8,1
80383,643624516,76.0,82.0,-86.0,0,0.475,755.2,79.8,1
80384,643632521,76.0,81.0,-87.0,0,0.465,755.2,79.8,1
80385,643640517,77.0,80.0,-88.0,0,0.466,755.2,79.8,1
80386,643648517,75.0,79.0,-88.0,1,0.455,755.2,79.8,1
80387,643656517,74.0,77.0,-89.0,0,0.466,755.2,79.8,1
80388,643664517,76.0,77.0,-89.0,1,0.455,755.2,79.8,1
80389,643672517,75.0,77.0,-90.0,0,0.466,755.2,79.8,1
80390,643680517,79.0,77.0,-89.0,1,0.464,755.2,79.8,1
80391,643688517,77.0,77.0,-89.0,1,0.452,755.2,79.8,1
80392,643696521,80.0,78.0,-89.0,0,0.452,755.2,79.8,1
80393,643704517,80.0,78.0,-88.0,0,0.46,755.2,79.8,1
80394,643712521,80.0,79.0,-87.0,0,0.458,755.2,79.8,1
80395,643720517,85.0,80.0,-86.0,0,0.456,755.2,79.8,1
80396,643728517,85.0,81.0,-85.0,0,0.454,755.2,79.8,1
80397,643736517,85.0,82.0,-83.0,0,0.461,755.2,79.8,1
80398,643744517,88.0,84.0,-82.0,0,0.448,755.2,79.8,1
80399,643752517,87.0,84.0,-80.0,0,0.455,755.2,79.8,1
80400,643760517,92.0,86.0,-79.0,0,0.442,755.2,79.8,1
80401,643768517,93.0,88.0,-77.0,0,0.45,755.2,79.8,1
80402,643776517,95.0,90.0,-75.0,0,0.446,755.2,79.8,1
80403,643784517,100.0,92.0,-73.0,0,0.442,755.2,79.8,1
80404,643792517,100.0,94.0,-71.0,0,0.439,755.2,79.8,1
80405,643800517,104.0,96.0,-68.0,0,0.445,755.2,79.8,1
80406,643808517,107.0,99.0,-66.0,0,0.43,755.2,79.8,1
80407,643816517,108.0,101.0,-63.0,0,0.436,755.2,79.8,1
80408,643824517,112.0,104.0,-60.0,0,0.43,755.2,79.8,1
80409,643832517,114.0,106.0,-58.0,0,0.415,755.2,79.8,1
80410,643840519,118.0,109.0,-55.0,0,0.422,755.2,79.8,1
80411,643848519,121.0,112.0,-52.0,0,0.416,755.2,79.8,1
80412,643856517,131.0,117.0,-48.0,0,0.421,755.2,79.8,1
80413,643864517,142.0,123.0,-44.0,0,0.415,755.2,79.8,1
80414,643872517,152.0,130.0,-39.0,0,0.418,755.2,79.8,1
80415,643880517,170.0,140.0,-32.0,0,0.431,755.2,79.8,1
80416,643888519,188.0,151.0,-24.0,0,0.429,755.2,79.8,1
80417,643896517,211.0,166.0,-15.0,0,0.427,755.2,79.8,1
80418,643904517,237.0,183.0,-3.0,0,0.461,755.2,79.8,1
80419,643912517,264.0,203.0,11.0,0,0.503,755.2,79.8,1
80420,643920519,293.0,225.0,27.0,0,0.548,755.2,79.8,1
80421,643928517,318.0,247.0,45.0,0,0.596,755.2,79.8,1
80422,643936519,343.0,270.0,64.0,0,0.637,755.2,79.8,1
80423,643944517,367.0,294.0,85.0,0,0.686,755.2,79.8,1
80424,643952517,383.0,315.0,105.0,0,0.714,755.2,79.8,1
80425,643960517,404.0,337.0,125.0,0,0.745,755.2,79.8,1
80426,643968517,417.0,356.0,145.0,0,0.774,755.2,79.8,1
80427,643976517,427.0,373.0,163.0,0,0.783,755.2,79.8,1
80428,643984517,432.0,388.0,180.0,0,0.794,755.2,79.8,1
80429,643992517,432.0,398.0,195.0,0,0.791,755.2,79.8,1
80430,644000517,430.0,406.0,207.0,0,0.772,755.2,79.8,1
80431,644008517,424.0,410.0,217.0,0,0.758,755.2,79.8,1
80432,644016517,415.0,412.0,223.0,0,0.716,755.2,79.8,1
80433,644024517,404.0,410.0,227.0,0,0.695,755.2,79.8,1
80434,644032517,389.0,405.0,228.0,0,0.661,755.2,79.8,1
80435,644040517,372.0,397.0,226.0,1,0.668,755.2,79.8,1
80436,644048517,355.0,387.0,221.0,0,0.696,755.2,79.8,1
80437,644056517,333.0,374.0,213.0,0,0.72,755.2,79.8,1
80438,644064517,314.0,359.0,204.0,0,0.721,755.2,79.8,1
80439,644072517,291.0,343.0,192.0,0,0.738,755.2,79.8,1
80440,644080517,271.0,325.0,178.0,0,0.739,755.2,79.8,1
80441,644088517,245.0,306.0,162.0,0,0.733,755.2,79.8,1
80442,644096517,225.0,286.0,145.0,0,0.714,755.2,79.8,1
80443,644104517,204.0,266.0,127.0,0,0.692,755.2,79.8,1
80444,644112517,184.0,246.0,108.0,0,0.665,755.2,79.8,1
80445,644120517,164.0,226.0,89.0,0,0.631,755.2,79.8,1
80446,644128517,147.0,207.0,70.0,0,0.596,755.2,79.8,1
80447,644136519,131.0,189.0,51.0,0,0.562,755.2,79.8,1
80448,644144519,120.0,172.0,33.0,0,0.524,755.2,79.8,1
80449,644152517,107.0,156.0,15.0,0,0.495,755.2,79.8,1
80450,644160517,100.0,143.0,-1.0,0,0.497,755.2,79.8,1
80451,644168517,95.0,131.0,-16.0,0,0.512,755.2,79.8,1
80452,644176517,92.0,122.0,-29.0,0,0.515,755.2,79.8,1
80453,644184517,88.0,113.0,-41.0,0,0.525,753.6,79.8,1
80454,644192517,87.0,107.0,-51.0,0,0.522,753.6,79.8,1
80455,644200517,85.0,102.0,-59.0,0,0.514,753.6,79.8,1
80456,644208517,88.0,98.0,-66.0,0,0.516,753.6,79.8,1
80457,644216517,88.0,96.0,-72.0,0,0.515,753.6,79.8,1
80458,644224517,92.0,95.0,-76.0,0,0.499,753.6,79.8,1
80459,644232517,94.0,95.0,-78.0,0,0.481,753.6,79.8,1
80460,644240517,99.0,96.0,-80.0,0,0.483,753.6,79.8,1
80461,644248517,100.0,97.0,-81.0,0,0.474,753.6,79.8,1
80462,644256517,100.0,98.0,-81.0,1,0.462,753.6,79.8,1
80463,644264517,103.0,99.0,-80.0,0,0.47,753.6,79.8,1
80464,644272517,103.0,100.0,-79.0,0,0.467,753.6,79.8,1
80465,644280517,105.0,101.0,-78.0,0,0.464,753.6,79.8,1
80466,644288517,104.0,102.0,-77.0,0,0.462,753.6,79.8,1
80467,644296518,102.0,102.0,-76.0,0,0.459,753.6,79.8,1
80468,644304517,104.0,102.0,-75.0,0,0.456,753.6,79.8,1
80469,644312517,100.0,102.0,-75.0,1,0.445,753.6,79.8,1
80470,644320517,100.0,101.0,-74.0,0,0.453,753.6,79.8,1
80471,644328517,96.0,100.0,-74.0,1,0.441,753.6,79.8,1
80472,644336517,94.0,99.0,-74.0,0,0.44,753.6,79.8,1
80473,644344518,93.0,97.0,-75.0,0,0.452,753.6,79.8,1
80474,644352517,92.0,96.0,-75.0,1,0.44,753.6,79.8,1
80475,644360517,88.0,94.0,-76.0,0,0.451,753.6,79.8,1
80476,644368517,87.0,92.0,-77.0,0,0.452,753.6,79.8,1
80477,644376517,86.0,91.0,-78.0,0,0.453,753.6,79.8,1
80478,644384517,85.0,89.0,-79.0,0,0.454,753.6,79.8,1
80479,644392517,84.0,88.0,-79.0,1,0.443,753.6,79.8,1
80480,644400517,84.0,87.0,-80.0,0,0.454,753.6,79.8,1
80481,644408519,85.0,87.0,-81.0,0,0.455,753.6,79.8,1
80482,644416517,84.0,86.0,-81.0,1,0.443,753.6,79.8,1
80483,644424517,85.0,86.0,-81.0,0,0.443,753.6,79.8,1
80484,644432517,82.0,85.0,-82.0,0,0.455,753.6,79.8,1
80485,644440517,84.0,85.0,-82.0,1,0.443,753.6,79.8,1
80486,644448517,85.0,85.0,-81.0,0,0.451,753.6,79.8,1
80487,644456517,86.0,85.0,-81.0,1,0.44,753.6,79.8,1
80488,644464517,92.0,87.0,-80.0,0,0.448,753.6,79.8,1
80489,644472517,90.0,88.0,-79.0,0,0.446,753.6,79.8,1
80490,644480517,92.0,89.0,-78.0,0,0.444,753.6,79.8,1
80491,644488518,93.0,90.0,-77.0,0,0.442,753.6,79.8,1
80492,644496517,95.0,91.0,-75.0,0,0.45,750.4,79.8,1
80493,644504517,98.0,93.0,-74.0,0,0.436,750.4,79.8,1
80494,644512517,98.0,94.0,-72.0,0,0.444,750.4,79.8,1
80495,644520517,102.0,96.0,-70.0,0,0.44,750.4,79.8,1
80496,644528517,103.0,98.0,-68.0,0,0.436,750.4,79.8,1
80497,644536517,110.0,101.0,-66.0,0,0.433,750.4,79.8,1
80498,644544517,109.0,103.0,-64.0,0,0.429,750.4,79.8,1
80499,644552517,109.0,104.0,-61.0,0,0.435,750.4,79.8,1
80500,644560517,112.0,106.0,-59.0,0,0.42,750.4,79.8,1
80501,644568517,115.0,108.0,-57.0,0,0.416,750.4,79.8,1
80502,644576517,115.0,110.0,-55.0,0,0.413,750.4,79.8,1
80503,644584517,121.0,113.0,-52.0,0,0.419,750.4,79.8,1
80504,644592517,123.0,115.0,-50.0,0,0.404,750.4,79.8,1
80505,644600517,131.0,119.0,-47.0,0,0.411,750.4,79.8,1
80506,644608517,137.0,123.0,-43.0,0,0.416,750.4,79.8,1
80507,644616517,148.0,129.0,-39.0,0,0.409,750.4,79.8,1
80508,644624517,163.0,137.0,-33.0,0,0.423,750.4,79.8,1
80509,644632517,179.0,148.0,-27.0,0,0.413,750.4,79.8,1
80510,644640518,203.0,161.0,-18.0,0,0.435,750.4,79.8,1
80511,644648517,226.0,177.0,-7.0,0,0.446,750.4,79.8,1
80512,644656517,250.0,195.0,5.0,0,0.476,750.4,79.8,1
80513,644664517,280.0,215.0,20.0,0,0.532,750.4,79.8,1
80514,644672517,305.0,237.0,37.0,0,0.579,750.4,79.8,1
80515,644680517,334.0,261.0,55.0,0,0.62,750.4,79.8,1
80516,644688517,357.0,284.0,75.0,0,0.67,750.4,79.8,1
80517,644696517,380.0,307.0,95.0,0,0.706,750.4,79.8,1
80518,644704517,404.0,331.0,116.0,0,0.747,750.4,79.8,1
80519,644712517,417.0,352.0,137.0,0,0.779,750.4,79.8,1
80520,644720517,429.0,370.0,156.0,0,0.791,750.4,79.8,1
80521,644728517,438.0,387.0,175.0,0,0.813,750.4,79.8,1
80522,644736517,443.0,400.0,191.0,0,0.805,750.4,79.8,1
80523,644744517,442.0,410.0,205.0,0,0.799,750.4,79.8,1
80524,644752521,439.0,417.0,217.0,0,0.788,750.4,79.8,1
80525,644760517,433.0,421.0,226.0,0,0.761,750.4,79.8,1
80526,644768519,421.0,421.0,232.0,0,0.729,750.4,79.8,1
80527,644776517,407.0,418.0,235.0,0,0.695,750.4,79.8,1
80528,644784517,394.0,412.0,235.0,1,0.661,750.4,79.8,1
80529,644792517,373.0,403.0,231.0,0,0.7,750.4,79.8,1
80530,644800517,359.0,392.0,226.0,0,0.705,750.4,79.8,1
80531,644808517,340.0,379.0,218.0,0,0.731,750.4,79.8,1
80532,644816517,319.0,365.0,207.0,0,0.752,750.4,79.8,1
80533,644824517,298.0,349.0,195.0,0,0.748,750.4,79.8,1
80534,644832517,277.0,331.0,181.0,0,0.749,750.4,79.8,1
80535,644840517,254.0,312.0,165.0,0,0.743,750.4,79.8,1
80536,644848517,232.0,293.0,149.0,0,0.718,750.4,79.8,1
80537,644856518,213.0,274.0,131.0,0,0.703,750.4,79.8,1
80538,644864518,196.0,255.0,113.0,0,0.671,750.4,79.8,1
80539,644872517,179.0,236.0,94.0,0,0.643,750.4,79.8,1
80540,644880517,163.0,219.0,76.0,0,0.602,750.4,79.8,1
80541,644888519,146.0,201.0,58.0,0,0.569,750.4,79.8,1
80542,644896517,134.0,185.0,40.0,0,0.537,750.4,79.8,1
80543,644904521,124.0,170.0,24.0,0,0.493,750.4,79.8,1
80544,644912517,113.0,156.0,8.0,0,0.487,750.4,79.8,1
80545,644920517,109.0,145.0,-7.0,0,0.503,750.4,79.8,1
80546,644928517,102.0,134.0,-20.0,0,0.506,750.4,79.8,1
80547,644936517,100.0,126.0,-32.0,0,0.516,750.4,79.8,1
80548,644944517,97.0,119.0,-42.0,0,0.513,750.4,79.8,1
80549,644952517,96.0,113.0,-51.0,0,0.519,750.4,79.8,1
80550,644960517,100.0,110.0,-58.0,0,0.509,750.4,79.8,1
80551,644968517,97.0,107.0,-63.0,0,0.496,750.4,79.8,1
80552,644976517,98.0,105.0,-68.0,0,0.504,750.4,79.8,1
80553,644984517,102.0,104.0,-71.0,0,0.487,750.4,79.8,1
80554,644992519,100.0,103.0,-74.0,0,0.492,750.4,79.8,1
80555,645000517,102.0,103.0,-76.0,0,0.484,750.4,79.8,1
80556,645008517,103.0,103.0,-77.0,0,0.474,750.4,79.8,1
80557,645016517,104.0,103.0,-77.0,1,0.463,750.4,79.8,1
80558,645024517,105.0,104.0,-77.0,0,0.462,750.4,79.8,1
80559,645032521,102.0,103.0,-77.0,0,0.461,750.4,79.8,1
80560,645040517,103.0,103.0,-77.0,0,0.46,750.4,79.8,1
80561,645048519,100.0,102.0,-77.0,0,0.459,750.4,79.8,1
80562,645056517,100.0,102.0,-77.0,0,0.458,750.4,79.8,1
80563,645064517,97.0,101.0,-78.0,0,0.469,750.4,79.8,1
80564,645072517,93.0,99.0,-78.0,1,0.458,750.4,79.8,1
80565,645080517,92.0,97.0,-79.0,0,0.47,750.4,79.8,1
80566,645088517,87.0,95.0,-80.0,0,0.471,750.4,79.8,1
80567,645096517,83.0,92.0,-81.0,0,0.472,750.4,79.8,1
80568,645104517,83.0,90.0,-83.0,0,0.485,750.4,79.8,1
80569,645112517,76.0,86.0,-84.0,0,0.475,750.4,79.8,1
80570,645120517,76.0,84.0,-86.0,0,0.489,752.0,79.8,1
80571,645128517,75.0,82.0,-88.0,0,0.492,752.0,79.8,1
80572,645136517,72.0,79.0,-90.0,0,0.495,752.0,79.8,1
80573,645144517,75.0,78.0,-91.0,0,0.485,752.0,79.8,1
80574,645152517,72.0,77.0,-92.0,0,0.486,752.0,79.8,1
80575,645160517,74.0,76.0,-93.0,0,0.487,752.0,79.8,1
80576,645168517,73.0,75.0,-94.0,0,0.488,752.0,79.8,1
80577,645176517,71.0,74.0,-95.0,0,0.489,752.0,79.8,1
80578,645184517,73.0,74.0,-95.0,1,0.477,752.0,79.8,1
80579,645192517,74.0,74.0,-95.0,0,0.476,752.0,79.8,1
80580,645200517,76.0,74.0,-95.0,0,0.475,752.0,79.8,1
80581,645208517,77.0,75.0,-94.0,0,0.483,752.0,79.8,1
80582,645216517,80.0,76.0,-93.0,0,0.48,752.0,79.8,1
80583,645224517,83.0,78.0,-92.0,0,0.478,752.0,79.8,1
80584,645232517,84.0,79.0,-90.0,0,0.486,752.0,79.8,1
80585,645240517,87.0,81.0,-89.0,0,0.471,752.0,79.8,1
80586,645248517,91.0,84.0,-87.0,0,0.479,752.0,79.8,1
80587,645256517,92.0,86.0,-84.0,0,0.486,752.0,79.8,1
80588,645264517,96.0,88.0,-82.0,0,0.469,752.0,79.8,1
80589,645272517,94.0,90.0,-80.0,0,0.465,752.0,79.8,1
80590,645280518,99.0,92.0,-77.0,0,0.472,752.0,79.8,1
80591,645288517,100.0,94.0,-75.0,0,0.456,752.0,79.8,1
80592,645296517,99.0,95.0,-72.0,0,0.463,752.0,79.8,1
80593,645304517,104.0,97.0,-70.0,0,0.447,752.0,79.8,1
80594,645312517,106.0,99.0,-68.0,0,0.443,752.0,79.8,1
80595,645320517,109.0,102.0,-65.0,0,0.45,752.0,79.8,1
80596,645328517,112.0,104.0,-63.0,0,0.434,752.0,79.8,1
80597,645336517,113.0,106.0,-60.0,0,0.441,752.0,79.8,1
80598,645344517,120.0,110.0,-57.0,0,0.435,752.0,79.8,1
80599,645352519,125.0,113.0,-54.0,0,0.43,752.0,79.8,1
80600,645360517,136.0,119.0,-50.0,0,0.435,752.0,79.8,1
80601,645368517,151.0,127.0,-45.0,0,0.439,752.0,79.8,1
80602,645376517,170.0,137.0,-38.0,0,0.452,752.0,79.8,1
80603,645384517,192.0,150.0,-30.0,0,0.45,752.0,79.8,1
80604,645392517,216.0,166.0,-19.0,0,0.467,752.0,79.8,1
80605,645400517,242.0,185.0,-6.0,0,0.472,752.0,79.8,1
80606,645408517,271.0,206.0,9.0,0,0.517,752.0,79.8,1
80607,645416517,300.0,228.0,26.0,0,0.564,752.0,79.8,1
80608,645424517,328.0,253.0,45.0,0,0.614,752.0,79.8,1
80609,645432518,353.0,277.0,65.0,0,0.659,752.0,79.8,1
80610,645440517,379.0,302.0,86.0,0,0.704,752.0,79.8,1
80611,645448517,401.0,326.0,108.0,0,0.748,752.0,79.8,1
80612,645456517,416.0,348.0,130.0,0,0.784,752.0,79.8,1
80613,645464517,431.0,368.0,150.0,0,0.8,752.0,79.8,1
80614,645472517,439.0,385.0,170.0,0,0.825,752.0,79.8,1
80615,645480517,445.0,400.0,187.0,0,0.82,752.0,79.8,1
80616,645488517,447.0,411.0,203.0,0,0.826,752.0,79.8,1
80617,645496517,445.0,419.0,215.0,0,0.796,752.0,79.8,1
80618,645504519,439.0,424.0,225.0,0,0.78,752.0,79.8,1
80619,645512517,428.0,425.0,232.0,0,0.749,752.0,79.8,1
80620,645520516,419.0,424.0,236.0,0,0.714,752.0,79.8,1
80621,645528517,403.0,419.0,237.0,0,0.679,752.0,79.8,1
80622,645536517,383.0,410.0,235.0,1,0.687,752.0,79.8,1
80623,645544517,367.0,400.0,230.0,0,0.716,752.0,79.8,1
80624,645552517,344.0,386.0,223.0,0,0.732,752.0,79.8,1
80625,645560517,324.0,371.0,212.0,0,0.767,752.0,79.8,1
80626,645568520,305.0,355.0,200.0,0,0.763,752.0,79.8,1
80627,645576517,280.0,337.0,186.0,0,0.765,752.0,79.8,1
80628,645584517,262.0,319.0,170.0,0,0.76,752.0,79.8,1
80629,645592517,235.0,298.0,153.0,0,0.742,752.0,79.8,1
80630,645600517,214.0,278.0,135.0,0,0.719,752.0,79.8,1
80631,645608517,196.0,258.0,116.0,0,0.691,752.0,79.8,1
80632,645616521,176.0,238.0,97.0,0,0.655,752.0,79.8,1
80633,645624518,158.0,219.0,78.0,0,0.618,752.0,79.8,1
80634,645632517,143.0,200.0,59.0,0,0.582,752.0,79.8,1
80635,645640517,130.0,183.0,40.0,0,0.547,752.0,79.8,1
80636,645648517,117.0,167.0,22.0,0,0.508,752.0,79.8,1
80637,645656517,110.0,153.0,6.0,0,0.496,752.0,79.8,1
80638,645664517,102.0,141.0,-10.0,0,0.523,752.0,79.8,1
80639,645672519,96.0,130.0,-24.0,0,0.53,752.0,79.8,1
80640,645680518,95.0,122.0,-36.0,0,0.532,752.0,79.8,1
80641,645688517,91.0,114.0,-46.0,0,0.529,752.0,79.8,1
80642,645696517,92.0,109.0,-56.0,0,0.548,752.0,79.8,1
80643,645704517,92.0,105.0,-63.0,0,0.527,752.0,79.8,1
80644,645712517,91.0,101.0,-69.0,0,0.527,752.0,79.8,1
80645,645720517,93.0,99.0,-74.0,0,0.525,752.0,79.8,1
80646,645728518,92.0,98.0,-78.0,0,0.52,752.0,79.8,1
80647,645736517,94.0,97.0,-80.0,0,0.502,752.0,79.8,1
80648,645744519,91.0,95.0,-83.0,0,0.517,752.0,79.8,1
80649,645752519,95.0,95.0,-84.0,0,0.497,752.0,79.8,1
80650,645760518,94.0,95.0,-85.0,0,0.498,752.0,79.8,1
80651,645768517,95.0,95.0,-86.0,0,0.498,752.0,79.8,1
80652,645776518,94.0,95.0,-86.0,1,0.487,752.0,79.8,1
80653,645784519,93.0,94.0,-86.0,0,0.486,752.0,79.8,1
80654,645792517,92.0,94.0,-86.0,0,0.485,752.0,79.8,1
80655,645800519,91.0,93.0,-86.0,0,0.484,752.0,79.8,1
80656,645808518,89.0,92.0,-86.0,0,0.482,752.0,79.8,1
80657,645816517,88.0,91.0,-87.0,0,0.494,752.0,79.8,1
80658,645824517,86.0,90.0,-87.0,1,0.482,752.0,79.8,1
80659,645832517,84.0,88.0,-87.0,0,0.481,752.0,79.8,1
80660,645840517,81.0,87.0,-88.0,0,0.493,752.0,79.8,1
80661,645848517,80.0,85.0,-89.0,0,0.494,752.0,79.8,1
80662,645856517,76.0,83.0,-90.0,0,0.495,752.0,79.8,1
80663,645864522,78.0,82.0,-91.0,0,0.496,752.0,79.8,1
80664,645872517,71.0,79.0,-92.0,0,0.497,752.0,79.8,1
80665,645880517,70.0,77.0,-93.0,0,0.498,752.0,79.8,1
80666,645888517,69.0,75.0,-95.0,0,0.512,752.0,79.8,1
80667,645896517,68.0,73.0,-96.0,0,0.502,752.0,79.8,1
80668,645904517,68.0,72.0,-97.0,0,0.503,752.0,79.8,1
80669,645912517,68.0,71.0,-98.0,0,0.504,752.0,79.8,1
80670,645920517,68.0,70.0,-98.0,1,0.492,752.0,79.8,1
80671,645928519,70.0,70.0,-99.0,0,0.503,752.0,79.8,1
80672,645936518,71.0,70.0,-98.0,1,0.5,752.0,79.8,1
80673,645944519,70.0,70.0,-98.0,1,0.488,752.0,79.8,1
80674,645952517,70.0,70.0,-98.0,0,0.487,752.0,79.8,1
80675,645960517,74.0,71.0,-97.0,0,0.495,752.0,79.8,1
80676,645968518,72.0,71.0,-97.0,1,0.483,752.0,79.8,1
80677,645976517,77.0,73.0,-96.0,0,0.492,752.0,79.8,1
80678,645984517,77.0,74.0,-94.0,0,0.499,752.0,79.8,1
80679,645992517,80.0,75.0,-93.0,0,0.485,752.0,79.8,1
80680,646000517,84.0,77.0,-91.0,0,0.492,752.0,79.8,1
80681,646008517,85.0,79.0,-89.0,0,0.488,752.0,79.8,1
80682,646016517,85.0,81.0,-87.0,0,0.484,752.0,79.8,1
80683,646024517,92.0,83.0,-85.0,0,0.479,752.0,79.8,1
80684,646032517,91.0,85.0,-82.0,0,0.486,752.0,79.8,1
80685,646040517,95.0,88.0,-80.0,0,0.469,752.0,79.8,1
80686,646048517,95.0,89.0,-77.0,0,0.476,752.0,79.8,1
80687,646056517,96.0,91.0,-75.0,0,0.459,750.4,79.8,1
80688,646064517,100.0,93.0,-73.0,0,0.455,750.4,79.8,1
80689,646072517,100.0,95.0,-70.0,0,0.462,750.4,79.8,1
80690,646080517,105.0,97.0,-68.0,0,0.445,750.4,79.8,1
80691,646088517,107.0,100.0,-65.0,0,0.452,750.4,79.8,1
80692,646096517,112.0,103.0,-63.0,0,0.436,750.4,79.8,1
80693,646104517,118.0,106.0,-59.0,0,0.453,750.4,79.8,1
80694,646112517,125.0,111.0,-56.0,0,0.435,750.4,79.8,1
80695,646120517,141.0,118.0,-51.0,0,0.451,750.4,79.8,1
80696,646128517,156.0,127.0,-45.0,0,0.452,750.4,79.8,1
80697,646136517,173.0,138.0,-37.0,0,0.463,750.4,79.8,1
80698,646144517,196.0,152.0,-28.0,0,0.459,750.4,79.8,1
80699,646152517,220.0,169.0,-17.0,0,0.463,750.4,79.8,1
80700,646160517,250.0,188.0,-3.0,0,0.488,750.4,79.8,1
80701,646168517,278.0,210.0,13.0,0,0.533,750.4,79.8,1
80702,646176520,310.0,234.0,31.0,0,0.582,750.4,79.8,1
80703,646184517,338.0,259.0,51.0,0,0.633,750.4,79.8,1
80704,646192518,363.0,285.0,72.0,0,0.679,750.4,79.8,1
80705,646200517,392.0,311.0,94.0,0,0.725,750.4,79.8,1
80706,646208517,412.0,335.0,117.0,0,0.77,750.4,79.8,1
80707,646216517,429.0,358.0,139.0,0,0.798,750.4,79.8,1
80708,646224517,442.0,378.0,161.0,0,0.827,750.4,79.8,1
80709,646232517,449.0,395.0,180.0,0,0.829,750.4,79.8,1
80710,646240517,452.0,409.0,198.0,0,0.839,750.4,79.8,1
80711,646248519,454.0,420.0,213.0,0,0.825,750.4,79.8,1
80712,646256517,450.0,427.0,225.0,0,0.803,750.4,79.8,1
80713,646264517,446.0,432.0,235.0,0,0.787,750.4,79.8,1
80714,646272519,432.0,432.0,241.0,0,0.742,750.4,79.8,1
80715,646280517,421.0,429.0,245.0,0,0.719,750.4,79.8,1
80716,646288517,405.0,423.0,245.0,1,0.672,750.4,79.8,1
80717,646296517,383.0,414.0,242.0,0,0.702,750.4,79.8,1
80718,646304517,367.0,402.0,236.0,0,0.731,750.4,79.8,1
80719,646312517,343.0,388.0,227.0,0,0.757,750.4,79.8,1
80720,646320521,324.0,372.0,216.0,0,0.768,750.4,79.8,1
80721,646328517,302.0,355.0,203.0,0,0.774,750.4,79.8,1
80722,646336517,277.0,336.0,188.0,0,0.774,750.4,79.8,1
80723,646344517,258.0,317.0,172.0,0,0.76,750.4,79.8,1
80724,646352517,232.0,297.0,154.0,0,0.749,750.4,79.8,1
80725,646360519,213.0,276.0,135.0,0,0.724,750.4,79.8,1
80726,646368518,191.0,256.0,116.0,0,0.689,750.4,79.8,1
80727,646376516,173.0,236.0,96.0,0,0.659,750.4,79.8,1
80728,646384517,156.0,216.0,77.0,0,0.616,750.4,79.8,1
80729,646392519,141.0,198.0,57.0,0,0.585,750.4,79.8,1
80730,646400517,127.0,181.0,39.0,0,0.538,750.4,79.8,1
80731,646408517,115.0,165.0,21.0,0,0.507,750.4,79.8,1
80732,646416517,106.0,151.0,4.0,0,0.504,750.4,79.8,1
80733,646424517,100.0,138.0,-11.0,0,0.512,750.4,79.8,1
80734,646432517,92.0,127.0,-25.0,0,0.527,750.4,79.8,1
80735,646440517,89.0,118.0,-38.0,0,0.541,750.4,79.8,1
80736,646448517,84.0,110.0,-49.0,0,0.54,750.4,79.8,1
80737,646456519,82.0,103.0,-59.0,0,0.548,750.4,79.8,1
80738,646464517,86.0,99.0,-67.0,0,0.54,750.4,79.8,1
80739,646472517,85.0,95.0,-73.0,0,0.528,750.4,79.8,1
80740,646480517,88.0,94.0,-78.0,0,0.526,750.4,79.8,1
80741,646488517,87.0,92.0,-82.0,0,0.521,750.4,79.8,1
80742,646496517,88.0,91.0,-85.0,0,0.515,750.4,79.8,1
80743,646504517,90.0,91.0,-87.0,0,0.507,750.4,79.8,1
80744,646512517,88.0,90.0,-88.0,0,0.497,750.4,79.8,1
80745,646520517,92.0,91.0,-89.0,0,0.498,750.4,79.8,1
80746,646528518,90.0,90.0,-89.0,1,0.487,750.4,79.8,1
80747,646536521,89.0,90.0,-89.0,0,0.486,750.4,79.8,1
80748,646544518,88.0,90.0,-90.0,0,0.497,750.4,79.8,1
80749,646552517,87.0,89.0,-90.0,1,0.485,750.4,79.8,1
80750,646560517,85.0,88.0,-90.0,0,0.484,750.4,79.8,1
80751,646568517,84.0,87.0,-90.0,0,0.483,750.4,79.8,1
80752,646576517,81.0,86.0,-90.0,0,0.482,750.4,79.8,1
80753,646584517,79.0,84.0,-91.0,0,0.493,750.4,79.8,1
80754,646592517,75.0,82.0,-92.0,0,0.494,750.4,79.8,1
80755,646600517,72.0,79.0,-93.0,0,0.495,750.4,79.8,1
80756,646608517,69.0,77.0,-94.0,0,0.496,750.4,79.8,1
80757,646616517,67.0,74.0,-96.0,0,0.51,750.4,79.8,1
80758,646624521,69.0,73.0,-97.0,0,0.5,750.4,79.8,1
80759,646632517,64.0,71.0,-98.0,0,0.501,750.4,79.8,1
80760,646640517,67.0,70.0,-99.0,0,0.501,750.4,79.8,1
80761,646648518,65.0,69.0,-100.0,0,0.502,750.4,79.8,1
80762,646656521,64.0,68.0,-101.0,0,0.503,750.4,79.8,1
80763,646664519,66.0,67.0,-101.0,1,0.491,750.4,79.8,1
80764,646672517,65.0,67.0,-102.0,0,0.503,750.4,79.8,1
80765,646680517,66.0,67.0,-102.0,1,0.491,753.6,79.8,1
80766,646688517,69.0,67.0,-101.0,0,0.499,753.6,79.8,1
80767,646696517,69.0,68.0,-101.0,1,0.487,753.6,79.8,1
80768,646704517,72.0,69.0,-100.0,0,0.495,753.6,79.8,1
80769,646712517,72.0,69.0,-99.0,0,0.492,753.6,79.8,1
80770,646720517,76.0,71.0,-98.0,0,0.49,753.6,79.8,1
80771,646728517,80.0,73.0,-96.0,0,0.497,753.6,79.8,1
80772,646736517,82.0,75.0,-94.0,0,0.492,753.6,79.8,1
80773,646744517,85.0,78.0,-91.0,0,0.498,753.6,79.8,1
80774,646752517,87.0,80.0,-89.0,0,0.482,753.6,79.8,1
80775,646760517,92.0,83.0,-86.0,0,0.488,753.6,79.8,1
80776,646768517,95.0,86.0,-83.0,0,0.482,753.6,79.8,1
80777,646776517,97.0,89.0,-80.0,0,0.476,753.6,79.8,1
80778,646784517,100.0,91.0,-77.0,0,0.47,753.6,79.8,1
80779,646792518,102.0,94.0,-74.0,0,0.465,753.6,79.8,1
80780,646800521,104.0,96.0,-71.0,0,0.459,753.6,79.8,1
80781,646808519,108.0,99.0,-68.0,0,0.453,753.6,79.8,1
80782,646816519,108.0,101.0,-65.0,0,0.448,753.6,79.8,1
80783,646824517,112.0,104.0,-62.0,0,0.442,753.6,79.8,1
80784,646832518,112.0,106.0,-59.0,0,0.436,753.6,79.8,1
80785,646840517,118.0,109.0,-57.0,0,0.421,753.6,79.8,1
80786,646848517,119.0,111.0,-54.0,0,0.427,753.6,79.8,1
80787,646856518,126.0,115.0,-51.0,0,0.422,753.6,79.8,1
80788,646864517,139.0,121.0,-47.0,0,0.427,753.6,79.8,1
80789,646872517,148.0,127.0,-42.0,0,0.43,753.6,79.8,1
80790,646880517,164.0,136.0,-36.0,0,0.432,753.6,79.8,1
80791,646888517,182.0,147.0,-28.0,0,0.443,753.6,79.8,1
80792,646896517,203.0,161.0,-19.0,0,0.439,753.6,79.8,1
80793,646904517,229.0,177.0,-8.0,0,0.445,753.6,79.8,1
80794,646912517,254.0,196.0,5.0,0,0.488,753.6,79.8,1
80795,646920517,284.0,217.0,21.0,0,0.544,753.6,79.8,1
80796,646928517,308.0,239.0,38.0,0,0.583,753.6,79.8,1
80797,646936517,333.0,262.0,57.0,0,0.633,753.6,79.8,1
80798,646944517,359.0,286.0,76.0,0,0.668,753.6,79.8,1
80799,646952517,377.0,308.0,97.0,0,0.718,753.6,79.8,1
80800,646960521,397.0,329.0,117.0,0,0.745,753.6,79.8,1
80801,646968517,411.0,349.0,137.0,0,0.776,753.6,79.8,1
80802,646976521,419.0,366.0,155.0,0,0.786,753.6,79.8,1
80803,646984517,426.0,381.0,172.0,0,0.798,753.6,79.8,1
80804,646992517,428.0,392.0,187.0,0,0.796,753.6,79.8,1
80805,647000517,426.0,400.0,200.0,0,0.788,753.6,79.8,1
80806,647008517,421.0,405.0,210.0,0,0.763,753.6,79.8,1
80807,647016517,413.0,407.0,217.0,0,0.733,753.6,79.8,1
80808,647024517,403.0,406.0,222.0,0,0.712,753.6,79.8,1
80809,647032517,383.0,401.0,223.0,0,0.665,753.6,79.8,1
80810,647040517,371.0,393.0,221.0,1,0.673,753.6,79.8,1
80811,647048517,352.0,383.0,217.0,0,0.69,753.6,79.8,1
80812,647056517,331.0,371.0,209.0,0,0.728,753.6,79.8,1
80813,647064517,311.0,356.0,200.0,0,0.728,753.6,79.8,1
80814,647072517,289.0,340.0,188.0,0,0.746,753.6,79.8,1
80815,647080517,270.0,323.0,174.0,0,0.747,753.6,79.8,1
80816,647088517,247.0,305.0,159.0,0,0.733,753.6,79.8,1
80817,647096517,224.0,285.0,143.0,0,0.716,753.6,79.8,1
80818,647104517,205.0,266.0,125.0,0,0.701,753.6,79.8,1
80819,647112517,184.0,246.0,107.0,0,0.668,753.6,79.8,1
80820,647120517,166.0,226.0,88.0,0,0.64,753.6,79.8,1
80821,647128517,148.0,207.0,69.0,0,0.604,753.6,79.8,1
80822,647136517,133.0,189.0,51.0,0,0.563,753.6,79.8,1
80823,647144519,117.0,172.0,32.0,0,0.537,753.6,79.8,1
80824,647152521,106.0,156.0,15.0,0,0.493,753.6,79.8,1
80825,647160517,99.0,142.0,-2.0,0,0.51,753.6,79.8,1
80826,647168517,92.0,130.0,-17.0,0,0.518,753.6,79.8,1
80827,647176517,85.0,119.0,-30.0,0,0.521,753.6,79.8,1
80828,647184517,84.0,111.0,-43.0,0,0.544,753.6,79.8,1
80829,647192519,80.0,103.0,-53.0,0,0.531,753.6,79.8,1
80830,647200517,80.0,98.0,-62.0,0,0.536,753.6,79.8,1
80831,647208517,81.0,94.0,-70.0,0,0.54,753.6,79.8,1
80832,647216517,79.0,90.0,-76.0,0,0.528,753.6,79.8,1
80833,647224518,84.0,89.0,-80.0,0,0.512,753.6,79.8,1
80834,647232517,87.0,88.0,-84.0,0,0.519,753.6,79.8,1
80835,647240517,91.0,89.0,-86.0,0,0.5,753.6,79.8,1
80836,647248517,92.0,90.0,-87.0,0,0.49,753.6,79.8,1
80837,647256519,92.0,90.0,-87.0,1,0.479,753.6,79.8,1
80838,647264517,95.0,91.0,-87.0,0,0.478,753.6,79.8,1
80839,647272517,92.0,92.0,-86.0,0,0.486,753.6,79.8,1
80840,647280517,92.0,92.0,-86.0,1,0.474,753.6,79.8,1
80841,647288517,92.0,92.0,-85.0,0,0.482,753.6,79.8,1
80842,647296518,88.0,91.0,-85.0,1,0.47,753.6,79.8,1
80843,647304517,88.0,90.0,-85.0,0,0.469,752.0,79.8,1
80844,647312517,86.0,89.0,-85.0,0,0.468,752.0,79.8,1
80845,647320521,84.0,88.0,-85.0,0,0.467,752.0,79.8,1
80846,647328519,84.0,87.0,-85.0,0,0.466,752.0,79.8,1
80847,647336517,80.0,85.0,-86.0,0,0.478,752.0,79.8,1
80848,647344517,80.0,84.0,-86.0,1,0.466,752.0,79.8,1
80849,647352519,76.0,82.0,-87.0,0,0.478,752.0,79.8,1
80850,647360517,76.0,81.0,-88.0,0,0.479,752.0,79.8,1
80851,647368517,76.0,79.0,-89.0,0,0.48,752.0,79.8,1
80852,647376517,76.0,79.0,-89.0,1,0.468,752.0,79.8,1
80853,647384517,77.0,78.0,-90.0,0,0.48,752.0,79.8,1
80854,647392517,77.0,78.0,-90.0,1,0.468,752.0,79.8,1
80855,647400517,77.0,78.0,-90.0,0,0.467,752.0,79.8,1
80856,647408518,77.0,78.0,-90.0,0,0.466,752.0,79.8,1
80857,647416517,76.0,77.0,-90.0,0,0.465,752.0,79.8,1
80858,647424517,79.0,78.0,-89.0,0,0.473,752.0,79.8,1
80859,647432517,77.0,77.0,-89.0,1,0.461,752.0,79.8,1
80860,647440517,80.0,78.0,-88.0,0,0.469,752.0,79.8,1
80861,647448518,81.0,79.0,-87.0,0,0.466,752.0,79.8,1
80862,647456517,83.0,80.0,-86.0,0,0.463,752.0,79.8,1
80863,647464517,88.0,82.0,-85.0,0,0.461,752.0,79.8,1
80864,647472517,88.0,83.0,-83.0,0,0.468,752.0,79.8,1
80865,647480517,88.0,84.0,-82.0,0,0.454,752.0,79.8,1
80866,647488521,93.0,87.0,-80.0,0,0.461,752.0,79.8,1
80867,647496517,93.0,88.0,-78.0,0,0.457,752.0,79.8,1
80868,647504517,97.0,90.0,-76.0,0,0.452,752.0,79.8,1
80869,647512517,97.0,92.0,-73.0,0,0.459,752.0,79.8,1
80870,647520517,100.0,94.0,-71.0,0,0.442,752.0,79.8,1
80871,647528517,104.0,96.0,-69.0,0,0.438,752.0,79.8,1
80872,647536521,103.0,98.0,-67.0,0,0.435,752.0,79.8,1
80873,647544517,107.0,100.0,-64.0,0,0.441,752.0,79.8,1
80874,647552517,106.0,102.0,-62.0,0,0.425,752.0,79.8,1
80875,647560517,108.0,103.0,-60.0,0,0.421,752.0,79.8,1
80876,647568517,109.0,105.0,-58.0,0,0.418,752.0,79.8,1
80877,647576517,110.0,106.0,-56.0,0,0.414,752.0,79.8,1
80878,647584519,115.0,108.0,-54.0,0,0.41,752.0,79.8,1
80879,647592517,119.0,111.0,-51.0,0,0.417,752.0,79.8,1
80880,647600517,130.0,115.0,-48.0,0,0.411,752.0,79.8,1
80881,647608517,140.0,121.0,-44.0,0,0.416,752.0,79.8,1
80882,647616517,152.0,129.0,-39.0,0,0.42,750.4,79.8,1
80883,647624519,172.0,139.0,-33.0,0,0.422,750.4,79.8,1
80884,647632517,188.0,151.0,-25.0,0,0.433,750.4,79.8,1
80885,647640517,212.0,166.0,-15.0,0,0.44,750.4,79.8,1
80886,647648517,238.0,183.0,-3.0,0,0.469,750.4,79.8,1
80887,647656517,264.0,203.0,12.0,0,0.525,750.4,79.8,1
80888,647664517,292.0,224.0,28.0,0,0.562,750.4,79.8,1
80889,647672517,317.0,247.0,45.0,0,0.602,750.4,79.8,1
80890,647680517,342.0,270.0,64.0,0,0.652,750.4,79.8,1
80891,647688517,364.0,293.0,84.0,0,0.696,750.4,79.8,1
80892,647696517,382.0,314.0,104.0,0,0.731,750.4,79.8,1
80893,647704517,400.0,335.0,124.0,0,0.763,750.4,79.8,1
80894,647712517,407.0,353.0,143.0,0,0.783,750.4,79.8,1
80895,647720517,416.0,368.0,161.0,0,0.798,750.4,79.8,1
80896,647728517,419.0,380.0,176.0,0,0.79,750.4,79.8,1
80897,647736517,419.0,390.0,190.0,0,0.794,750.4,79.8,1
80898,647744519,418.0,397.0,201.0,0,0.772,750.4,79.8,1
80899,647752517,408.0,399.0,209.0,0,0.743,750.4,79.8,1
80900,647760517,399.0,399.0,215.0,0,0.723,750.4,79.8,1
80901,647768517,383.0,395.0,217.0,0,0.676,750.4,79.8,1
80902,647776517,367.0,388.0,216.0,1,0.662,750.4,79.8,1
80903,647784518,351.0,379.0,213.0,0,0.68,750.4,79.8,1
80904,647792517,329.0,367.0,206.0,0,0.719,750.4,79.8,1
80905,647800517,309.0,353.0,197.0,0,0.732,750.4,79.8,1
80906,647808517,289.0,338.0,186.0,0,0.74,750.4,79.8,1
80907,647816517,268.0,321.0,173.0,0,0.743,750.4,79.8,1
80908,647824517,246.0,303.0,159.0,0,0.732,750.4,79.8,1
80909,647832517,222.0,283.0,142.0,0,0.731,750.4,79.8,1
80910,647840517,204.0,264.0,125.0,0,0.701,750.4,79.8,1
80911,647848519,185.0,245.0,107.0,0,0.676,750.4,79.8,1
80912,647856522,167.0,226.0,89.0,0,0.642,750.4,79.8,1
80913,647864517,152.0,208.0,71.0,0,0.607,750.4,79.8,1
80914,647872517,137.0,191.0,53.0,0,0.573,750.4,79.8,1
80915,647880518,127.0,175.0,36.0,0,0.534,750.4,79.8,1
80916,647888517,119.0,162.0,19.0,0,0.505,750.4,79.8,1
80917,647896518,111.0,149.0,4.0,0,0.481,750.4,79.8,1
80918,647904517,106.0,139.0,-9.0,0,0.483,750.4,79.8,1
80919,647912517,100.0,129.0,-21.0,0,0.494,750.4,79.8,1
80920,647920517,100.0,122.0,-32.0,0,0.503,750.4,79.8,1
80921,647928517,98.0,116.0,-41.0,0,0.497,750.4,79.8,1
80922,647936518,99.0,112.0,-49.0,0,0.501,750.4,79.8,1
80923,647944517,100.0,109.0,-55.0,0,0.49,750.4,79.8,1
80924,647952517,98.0,107.0,-60.0,0,0.487,750.4,79.8,1
80925,647960517,101.0,105.0,-64.0,0,0.483,750.4,79.8,1
80926,647968517,102.0,104.0,-67.0,0,0.478,750.4,79.8,1
80927,647976517,104.0,104.0,-69.0,0,0.47,750.4,79.8,1
80928,647984517,108.0,105.0,-70.0,0,0.461,750.4,79.8,1
80929,647992521,109.0,106.0,-70.0,1,0.45,750.4,79.8,1
80930,648000517,109.0,107.0,-70.0,0,0.449,750.4,79.8,1
80931,648008517,109.0,107.0,-70.0,0,0.448,750.4,79.8,1
80932,648016517,109.0,108.0,-69.0,0,0.456,750.4,79.8,1
80933,648024517,109.0,108.0,-69.0,1,0.444,750.4,79.8,1
80934,648032517,107.0,108.0,-68.0,0,0.452,750.4,79.8,1
80935,648040517,107.0,108.0,-68.0,1,0.441,750.4,79.8,1
80936,648048517,106.0,107.0,-67.0,0,0.448,750.4,79.8,1
80937,648056517,104.0,106.0,-67.0,1,0.437,750.4,79.8,1
80938,648064517,104.0,106.0,-67.0,0,0.436,750.4,79.8,1
80939,648072517,100.0,104.0,-68.0,0,0.447,750.4,79.8,1
80940,648080519,98.0,103.0,-68.0,1,0.436,750.4,79.8,1
80941,648088517,97.0,101.0,-69.0,0,0.447,750.4,79.8,1
80942,648096517,93.0,99.0,-70.0,0,0.448,750.4,79.8,1
80943,648104517,90.0,97.0,-71.0,0,0.449,750.4,79.8,1
80944,648112517,93.0,96.0,-72.0,0,0.45,750.4,79.8,1
80945,648120517,91.0,95.0,-73.0,0,0.451,750.4,79.8,1
80946,648128517,92.0,94.0,-73.0,1,0.44,750.4,79.8,1
80947,648136517,90.0,93.0,-74.0,0,0.451,750.4,79.8,1
80948,648144517,92.0,93.0,-74.0,1,0.44,750.4,79.8,1
80949,648152517,88.0,92.0,-75.0,0,0.451,750.4,79.8,1
80950,648160517,90.0,91.0,-75.0,1,0.439,750.4,79.8,1
80951,648168517,91.0,91.0,-75.0,0,0.438,750.4,79.8,1
80952,648176519,91.0,91.0,-75.0,0,0.437,750.4,79.8,1
80953,648184517,93.0,92.0,-75.0,0,0.437,750.4,79.8,1
80954,648192517,92.0,92.0,-74.0,0,0.445,750.4,79.8,1
80955,648200517,95.0,93.0,-74.0,1,0.433,750.4,79.8,1
80956,648208517,96.0,93.0,-73.0,0,0.441,750.4,79.8,1
80957,648216517,96.0,94.0,-72.0,0,0.439,750.4,79.8,1
80958,648224517,100.0,95.0,-71.0,0,0.436,750.4,79.8,1
80959,648232517,100.0,97.0,-70.0,0,0.434,750.4,79.8,1
80960,648240517,101.0,98.0,-68.0,0,0.442,748.8,79.8,1
80961,648248517,103.0,99.0,-67.0,0,0.427,748.8,79.8,1
80962,648256517,106.0,101.0,-65.0,0,0.435,748.8,79.8,1
80963,648264519,108.0,102.0,-63.0,0,0.431,748.8,79.8,1
80964,648272517,107.0,104.0,-62.0,0,0.417,748.8,79.8,1
80965,648280519,109.0,105.0,-60.0,0,0.425,748.8,79.8,1
80966,648288517,110.0,106.0,-58.0,0,0.422,748.8,79.8,1
80967,648296517,112.0,108.0,-56.0,0,0.418,748.8,79.8,1
80968,648304517,116.0,110.0,-55.0,0,0.404,748.8,79.8,1
80969,648312517,117.0,111.0,-53.0,0,0.412,748.8,79.8,1
80970,648320517,125.0,115.0,-50.0,0,0.419,748.8,79.8,1
80971,648328517,135.0,120.0,-47.0,0,0.414,748.8,79.8,1
80972,648336517,146.0,126.0,-43.0,0,0.419,748.8,79.8,1
80973,648344517,164.0,135.0,-37.0,0,0.434,748.8,79.8,1
80974,648352517,180.0,146.0,-30.0,0,0.434,748.8,79.8,1
80975,648360517,201.0,159.0,-21.0,0,0.443,748.8,79.8,1
80976,648368517,226.0,176.0,-10.0,0,0.45,748.8,79.8,1
80977,648376517,249.0,193.0,3.0,0,0.494,748.8,79.8,1
80978,648384517,275.0,213.0,18.0,0,0.54,748.8,79.8,1
80979,648392517,300.0,234.0,34.0,0,0.579,748.8,79.8,1
80980,648400518,324.0,256.0,52.0,0,0.63,748.8,79.8,1
80981,648408519,348.0,278.0,70.0,0,0.665,748.8,79.8,1
80982,648416517,366.0,300.0,90.0,0,0.715,748.8,79.8,1
80983,648424519,382.0,320.0,109.0,0,0.742,748.8,79.8,1
80984,648432519,393.0,337.0,127.0,0,0.764,748.8,79.8,1
80985,648440517,404.0,354.0,145.0,0,0.789,748.8,79.8,1
80986,648448517,408.0,367.0,161.0,0,0.793,748.8,79.8,1
80987,648456517,408.0,377.0,174.0,0,0.778,748.8,79.8,1
80988,648464517,407.0,384.0,186.0,0,0.779,748.8,79.8,1
80989,648472517,400.0,388.0,195.0,0,0.752,748.8,79.8,1
80990,648480517,393.0,389.0,201.0,0,0.72,748.8,79.8,1
80991,648488517,380.0,387.0,205.0,0,0.698,748.8,79.8,1
80992,648496517,367.0,382.0,205.0,1,0.65,748.8,79.8,1
80993,648504517,352.0,375.0,203.0,0,0.669,748.8,79.8,1
80994,648512517,336.0,365.0,199.0,0,0.687,748.8,79.8,1
80995,648520517,318.0,354.0,192.0,0,0.714,748.8,79.8,1
80996,648528517,299.0,341.0,183.0,0,0.726,748.8,79.8,1
80997,648536517,276.0,325.0,172.0,0,0.734,748.8,79.8,1
80998,648544517,259.0,309.0,159.0,0,0.736,748.8,79.8,1
80999,648552517,236.0,291.0,145.0,0,0.723,748.8,79.8,1
81000,648560517,215.0,273.0,129.0,0,0.713,748.8,79.8,1
81001,648568517,196.0,254.0,113.0,0,0.683,748.8,79.8,1
81002,648576517,176.0,235.0,95.0,0,0.664,748.8,79.8,1
81003,648584517,163.0,218.0,78.0,0,0.622,748.8,79.8,1
81004,648592517,146.0,200.0,60.0,0,0.594,748.8,79.8,1
81005,648600517,136.0,185.0,43.0,0,0.553,748.8,79.8,1
81006,648608517,123.0,170.0,27.0,0,0.515,748.8,79.8,1
81007,648616517,114.0,156.0,11.0,0,0.487,748.8,79.8,1
81008,648624517,108.0,145.0,-3.0,0,0.489,748.8,79.8,1
81009,648632517,100.0,134.0,-16.0,0,0.502,748.8,79.8,1
81010,648640517,98.0,125.0,-28.0,0,0.514,748.8,79.8,1
81011,648648521,98.0,119.0,-38.0,0,0.512,748.8,79.8,1
81012,648656517,95.0,113.0,-47.0,0,0.518,748.8,79.8,1
81013,648664517,100.0,110.0,-54.0,0,0.508,748.8,79.8,1
81014,648672517,99.0,107.0,-60.0,0,0.509,748.8,79.8,1
81015,648680517,102.0,106.0,-64.0,0,0.493,748.8,79.8,1
81016,648688517,104.0,105.0,-67.0,0,0.488,748.8,79.8,1
81017,648696517,105.0,105.0,-69.0,0,0.48,748.8,79.8,1
81018,648704517,108.0,106.0,-70.0,0,0.471,748.8,79.8,1
81019,648712517,110.0,107.0,-71.0,0,0.473,748.8,79.8,1
81020,648720517,110.0,108.0,-71.0,1,0.462,748.8,79.8,1
81021,648728517,112.0,109.0,-70.0,0,0.47,748.8,79.8,1
81022,648736519,113.0,110.0,-69.0,0,0.467,748.8,79.8,1
81023,648744517,115.0,111.0,-68.0,0,0.465,748.8,79.8,1
81024,648752517,112.0,111.0,-67.0,0,0.462,748.8,79.8,1
81025,648760517,112.0,111.0,-66.0,0,0.459,748.8,79.8,1
81026,648768516,111.0,111.0,-66.0,1,0.448,748.8,79.8,1
81027,648776517,110.0,111.0,-65.0,0,0.456,748.8,79.8,1
81028,648784518,110.0,111.0,-65.0,1,0.444,748.8,79.8,1
81029,648792517,108.0,110.0,-65.0,0,0.443,748.8,79.8,1
81030,648800517,108.0,110.0,-64.0,0,0.451,748.8,79.8,1
81031,648808517,107.0,109.0,-64.0,1,0.439,748.8,79.8,1
81032,648816517,105.0,108.0,-65.0,0,0.451,748.8,79.8,1
81033,648824517,105.0,107.0,-65.0,1,0.439,748.8,79.8,1
81034,648832519,99.0,105.0,-65.0,0,0.438,748.8,79.8,1
81035,648840517,100.0,104.0,-66.0,0,0.45,748.8,79.8,1
81036,648848517,101.0,103.0,-66.0,1,0.438,748.8,79.8,1
81037,648856517,101.0,103.0,-67.0,0,0.451,748.8,79.8,1
81038,648864517,104.0,103.0,-67.0,1,0.438,747.2,79.8,1
81039,648872517,101.0,103.0,-67.0,0,0.438,747.2,79.8,1
81040,648880517,103.0,103.0,-67.0,0,0.437,747.2,79.8,1
81041,648888517,103.0,103.0,-67.0,0,0.436,747.2,79.8,1
81042,648896517,103.0,103.0,-66.0,0,0.444,747.2,79.8,1
81043,648904517,105.0,103.0,-66.0,1,0.432,747.2,79.8,1
81044,648912519,103.0,103.0,-65.0,0,0.44,747.2,79.8,1
81045,648920517,106.0,104.0,-65.0,1,0.428,747.2,79.8,1
81046,648928517,109.0,105.0,-64.0,0,0.436,747.2,79.8,1
81047,648936517,108.0,106.0,-63.0,0,0.433,747.2,79.8,1
81048,648944517,111.0,107.0,-62.0,0,0.43,747.2,79.8,1
81049,648952517,110.0,108.0,-61.0,0,0.427,747.2,79.8,1
81050,648960517,113.0,109.0,-59.0,0,0.434,747.2,79.8,1
81051,648968517,114.0,110.0,-58.0,0,0.419,747.2,79.8,1
81052,648976517,114.0,111.0,-57.0,0,0.417,747.2,79.8,1
81053,648984517,117.0,113.0,-55.0,0,0.425,747.2,79.8,1
81054,648992517,116.0,113.0,-54.0,0,0.41,747.2,79.8,1
81055,649000517,117.0,114.0,-52.0,0,0.418,747.2,79.8,1
81056,649008517,120.0,116.0,-51.0,0,0.403,747.2,79.8,1
81057,649016517,121.0,117.0,-50.0,0,0.401,747.2,79.8,1
81058,649024519,125.0,119.0,-48.0,0,0.41,747.2,79.8,1
81059,649032517,131.0,122.0,-46.0,0,0.406,747.2,79.8,1
81060,649040517,140.0,126.0,-43.0,0,0.413,747.2,79.8,1
81061,649048517,148.0,132.0,-39.0,0,0.419,747.2,79.8,1
81062,649056517,158.0,138.0,-35.0,0,0.411,747.2,79.8,1
81063,649064517,179.0,148.0,-29.0,0,0.426,747.2,79.8,1
81064,649072517,200.0,161.0,-21.0,0,0.438,747.2,79.8,1
81065,649080517,220.0,175.0,-11.0,0,0.445,747.2,79.8,1
81066,649088517,246.0,192.0,1.0,0,0.487,747.2,79.8,1
81067,649096518,274.0,212.0,15.0,0,0.535,747.2,79.8,1
81068,649104517,302.0,234.0,31.0,0,0.585,747.2,79.8,1
81069,649112517,325.0,256.0,49.0,0,0.638,747.2,79.8,1
81070,649120517,352.0,279.0,68.0,0,0.684,747.2,79.8,1
81071,649128517,372.0,302.0,87.0,0,0.721,747.2,79.8,1
81072,649136517,389.0,323.0,107.0,0,0.764,747.2,79.8,1
81073,649144517,408.0,344.0,127.0,0,0.797,747.2,79.8,1
81074,649152517,419.0,362.0,146.0,0,0.818,747.2,79.8,1
81075,649160517,427.0,378.0,164.0,0,0.832,747.2,79.8,1
81076,649168517,432.0,391.0,180.0,0,0.832,747.2,79.8,1
81077,649176517,427.0,400.0,193.0,0,0.814,747.2,79.8,1
81078,649184518,426.0,406.0,204.0,0,0.8,747.2,79.8,1
81079,649192521,416.0,408.0,212.0,0,0.769,747.2,79.8,1
81080,649200517,404.0,407.0,217.0,0,0.733,747.2,79.8,1
81081,649208517,397.0,405.0,220.0,0,0.708,747.2,79.8,1
81082,649216517,374.0,397.0,219.0,1,0.681,747.2,79.8,1
81083,649224517,364.0,389.0,216.0,0,0.702,747.2,79.8,1
81084,649232517,349.0,380.0,210.0,0,0.733,747.2,79.8,1
81085,649240517,327.0,367.0,202.0,0,0.749,747.2,79.8,1
81086,649248517,308.0,353.0,192.0,0,0.761,747.2,79.8,1
81087,649256517,284.0,336.0,180.0,0,0.769,747.2,79.8,1
81088,649264517,266.0,319.0,166.0,0,0.769,747.2,79.8,1
81089,649272517,242.0,300.0,151.0,0,0.755,747.2,79.8,1
81090,649280517,221.0,281.0,134.0,0,0.742,747.2,79.8,1
81091,649288517,202.0,262.0,117.0,0,0.71,746.4,79.9,1
81092,649296517,181.0,242.0,98.0,0,0.687,746.4,79.9,1
81093,649304519,164.0,223.0,80.0,0,0.642,746.4,79.9,1
81094,649312519,148.0,205.0,61.0,0,0.609,746.4,79.9,1
81095,649320517,134.0,188.0,43.0,0,0.565,746.4,79.9,1
81096,649328517,122.0,172.0,26.0,0,0.523,746.4,79.9,1
81097,649336519,109.0,157.0,9.0,0,0.503,746.4,79.9,1
81098,649344517,102.0,143.0,-7.0,0,0.524,746.4,79.9,1
81099,649352517,96.0,132.0,-21.0,0,0.533,746.4,79.9,1
81100,649360517,97.0,123.0,-34.0,0,0.549,746.4,79.9,1
81101,649368517,94.0,116.0,-44.0,0,0.537,746.4,79.9,1
81102,649376517,91.0,110.0,-54.0,0,0.557,746.4,79.9,1
81103,649384517,95.0,106.0,-61.0,0,0.536,746.4,79.9,1
81104,649392517,92.0,103.0,-68.0,0,0.55,746.4,79.9,1
81105,649400517,97.0,102.0,-72.0,0,0.523,746.4,79.9,1
81106,649408517,100.0,101.0,-76.0,0,0.53,746.4,79.9,1
81107,649416518,100.0,101.0,-78.0,0,0.511,746.4,79.9,1
81108,649424518,102.0,101.0,-79.0,0,0.502,746.4,79.9,1
81109,649432520,104.0,102.0,-80.0,0,0.503,746.4,79.9,1
81110,649440517,103.0,102.0,-80.0,1,0.492,746.4,79.9,1
81111,649448521,105.0,103.0,-80.0,0,0.492,746.4,79.9,1
81112,649456517,102.0,103.0,-80.0,0,0.491,746.4,79.9,1
81113,649464517,104.0,103.0,-79.0,0,0.499,746.4,79.9,1
81114,649472517,99.0,102.0,-79.0,1,0.488,746.4,79.9,1
81115,649480517,96.0,101.0,-79.0,0,0.487,746.4,79.9,1
81116,649488517,97.0,100.0,-80.0,0,0.499,744.8,79.9,1
81117,649496517,93.0,98.0,-80.0,1,0.488,744.8,79.9,1
81118,649504519,95.0,97.0,-80.0,0,0.487,744.8,79.9,1
81119,649512517,93.0,96.0,-81.0,0,0.499,744.8,79.9,1
81120,649520517,91.0,95.0,-81.0,1,0.486,744.8,79.9,1
81121,649528517,88.0,93.0,-82.0,0,0.498,744.8,79.9,1
81122,649536517,86.0,92.0,-83.0,0,0.499,744.8,79.9,1
81123,649544517,84.0,90.0,-84.0,0,0.5,744.8,79.9,1
81124,649552519,83.0,88.0,-85.0,0,0.501,744.8,79.9,1
81125,649560517,81.0,86.0,-86.0,0,0.502,744.8,79.9,1
81126,649568517,81.0,85.0,-87.0,0,0.503,744.8,79.9,1
81127,649576517,78.0,83.0,-88.0,0,0.504,744.8,79.9,1
81128,649584517,81.0,83.0,-88.0,1,0.492,744.8,79.9,1
81129,649592517,79.0,82.0,-89.0,0,0.505,744.8,79.9,1
81130,649600517,78.0,81.0,-90.0,0,0.506,744.8,79.9,1
81131,649608517,80.0,81.0,-90.0,1,0.493,744.8,79.9,1
81132,649616517,81.0,81.0,-90.0,0,0.493,744.8,79.9,1
81133,649624517,84.0,82.0,-89.0,0,0.501,744.8,79.9,1
81134,649632517,84.0,82.0,-89.0,1,0.489,744.8,79.9,1
81135,649640517,89.0,84.0,-88.0,0,0.497,744.8,79.9,1
81136,649648517,92.0,86.0,-86.0,0,0.504,744.8,79.9,1
81137,649656517,92.0,87.0,-85.0,0,0.489,744.8,79.9,1
81138,649664519,98.0,90.0,-82.0,0,0.506,744.8,79.9,1
81139,649672517,97.0,92.0,-80.0,0,0.489,744.8,79.9,1
81140,649680517,101.0,94.0,-78.0,0,0.483,744.8,79.9,1
81141,649688517,102.0,96.0,-76.0,0,0.478,744.8,79.9,1
81142,649696517,103.0,98.0,-73.0,0,0.484,744.8,79.9,1
81143,649704517,106.0,100.0,-71.0,0,0.466,744.8,79.9,1
81144,649712517,106.0,101.0,-69.0,0,0.461,744.8,79.9,1
81145,649720517,108.0,103.0,-67.0,0,0.456,744.8,79.9,1
81146,649728517,109.0,104.0,-65.0,0,0.451,744.8,79.9,1
81147,649736517,107.0,105.0,-63.0,0,0.447,744.8,79.9,1
81148,649744517,111.0,106.0,-61.0,0,0.442,744.8,79.9,1
81149,649752517,112.0,108.0,-59.0,0,0.438,744.8,79.9,1
81150,649760517,119.0,111.0,-57.0,0,0.433,744.8,79.9,1
81151,649768517,131.0,115.0,-54.0,0,0.44,744.8,79.9,1
81152,649776517,143.0,122.0,-50.0,0,0.446,744.8,79.9,1
81153,649784517,160.0,131.0,-44.0,0,0.461,744.8,79.9,1
81154,649792517,177.0,142.0,-37.0,0,0.46,744.8,79.9,1
81155,649800517,201.0,157.0,-28.0,0,0.469,744.8,79.9,1
81156,649808519,227.0,174.0,-16.0,0,0.482,744.8,79.9,1
81157,649816517,254.0,193.0,-3.0,0,0.489,744.8,79.9,1
81158,649824517,285.0,215.0,13.0,0,0.548,744.8,79.9,1
81159,649832517,311.0,239.0,31.0,0,0.6,744.8,79.9,1
81160,649840521,338.0,263.0,51.0,0,0.655,744.8,79.9,1
81161,649848517,364.0,287.0,72.0,0,0.704,744.8,79.9,1
81162,649856517,383.0,310.0,93.0,0,0.745,744.8,79.9,1
81163,649864517,404.0,333.0,114.0,0,0.783,744.8,79.9,1
81164,649872517,415.0,353.0,135.0,0,0.816,744.8,79.9,1
81165,649880521,427.0,371.0,154.0,0,0.829,744.8,79.9,1
81166,649888517,431.0,385.0,172.0,0,0.842,744.8,79.9,1
81167,649896517,432.0,397.0,187.0,0,0.831,744.8,79.9,1
81168,649904517,432.0,405.0,200.0,0,0.821,744.8,79.9,1
81169,649912518,424.0,410.0,210.0,0,0.794,744.8,79.9,1
81170,649920517,413.0,411.0,217.0,0,0.76,744.8,79.9,1
81171,649928517,404.0,409.0,221.0,0,0.723,744.8,79.9,1
81172,649936517,383.0,403.0,222.0,0,0.685,744.8,79.9,1
81173,649944517,374.0,396.0,220.0,1,0.694,744.8,79.9,1
81174,649952517,354.0,386.0,215.0,0,0.726,744.8,79.9,1
81175,649960517,337.0,374.0,208.0,0,0.744,744.8,79.9,1
81176,649968517,316.0,360.0,199.0,0,0.758,744.8,79.9,1
81177,649976517,296.0,344.0,187.0,0,0.779,744.8,79.9,1
81178,649984519,276.0,328.0,174.0,0,0.771,744.8,79.9,1
81179,649992517,252.0,309.0,159.0,0,0.768,744.8,79.9,1
81180,650000519,231.0,290.0,143.0,0,0.751,739.2,80.6,1
81181,650008517,210.0,271.0,126.0,0,0.728,739.2,80.6,1
81182,650016517,188.0,251.0,108.0,0,0.7,739.2,80.6,1
81183,650024521,171.0,231.0,89.0,0,0.668,739.2,80.6,1
81184,650032517,153.0,212.0,70.0,0,0.628,739.2,80.6,1
81185,650040518,139.0,195.0,52.0,0,0.583,739.2,80.6,1
81186,650048518,126.0,178.0,34.0,0,0.546,739.2,80.6,1
81187,650056521,112.0,162.0,16.0,0,0.512,739.2,80.6,1
81188,650064517,104.0,148.0,0.0,0,0.511,739.2,80.6,1
81189,650072517,95.0,135.0,-15.0,0,0.53,739.2,80.6,1
81190,650080517,88.0,124.0,-29.0,0,0.548,739.2,80.6,1
81191,650088518,90.0,116.0,-42.0,0,0.565,739.2,80.6,1
81192,650096517,87.0,109.0,-52.0,0,0.553,739.2,80.6,1
81193,650104517,87.0,103.0,-61.0,0,0.56,739.2,80.6,1
81194,650112517,86.0,99.0,-68.0,0,0.551,739.2,80.6,1
81195,650120517,90.0,97.0,-74.0,0,0.551,739.2,80.6,1
81196,650128517,93.0,96.0,-78.0,0,0.535,739.2,80.6,1
81197,650136517,94.0,96.0,-81.0,0,0.529,739.2,80.6,1
81198,650144517,98.0,96.0,-83.0,0,0.521,739.2,80.6,1
81199,650152519,96.0,96.0,-84.0,0,0.512,739.2,80.6,1
81200,650160517,100.0,97.0,-84.0,1,0.501,739.2,80.6,1
81201,650168517,104.0,99.0,-84.0,0,0.5,739.2,80.6,1
81202,650176517,102.0,100.0,-83.0,0,0.509,739.2,80.6,1
81203,650184518,107.0,101.0,-82.0,0,0.506,739.2,80.6,1
81204,650192517,104.0,102.0,-81.0,0,0.504,739.2,80.6,1
81205,650200518,106.0,103.0,-80.0,0,0.501,739.2,80.6,1
81206,650208517,105.0,103.0,-79.0,0,0.499,739.2,80.6,1
81207,650216518,104.0,104.0,-78.0,0,0.496,739.2,80.6,1
81208,650224517,103.0,103.0,-77.0,0,0.494,739.2,80.6,1
81209,650232520,101.0,103.0,-76.0,0,0.491,739.2,80.6,1
81210,650240517,100.0,102.0,-76.0,1,0.479,739.2,80.6,1
81211,650248517,97.0,101.0,-76.0,0,0.478,739.2,80.6,1
81212,650256517,95.0,99.0,-76.0,0,0.477,739.2,80.6,1
81213,650264517,95.0,98.0,-76.0,0,0.476,739.2,80.6,1
81214,650272517,88.0,96.0,-77.0,0,0.488,739.2,80.6,1
81215,650280517,88.0,94.0,-78.0,0,0.489,739.2,80.6,1
81216,650288517,87.0,92.0,-79.0,0,0.49,739.2,80.6,1
81217,650296517,84.0,90.0,-80.0,0,0.491,739.2,80.6,1
81218,650304517,84.0,89.0,-81.0,0,0.492,739.2,80.6,1
81219,650312519,82.0,87.0,-83.0,0,0.507,739.2,80.6,1
81220,650320517,83.0,86.0,-83.0,1,0.483,739.2,80.6,1
81221,650328517,81.0,85.0,-84.0,0,0.495,739.2,80.6,1
81222,650336517,80.0,84.0,-85.0,0,0.496,739.2,80.6,1
81223,650344517,84.0,84.0,-85.0,1,0.484,739.2,80.6,1
81224,650352517,82.0,83.0,-86.0,0,0.497,739.2,80.6,1
81225,650360517,84.0,83.0,-86.0,1,0.484,739.2,80.6,1
81226,650368517,86.0,84.0,-85.0,0,0.493,739.2,80.6,1
81227,650376518,84.0,84.0,-85.0,1,0.48,739.2,80.6,1
81228,650384517,89.0,85.0,-84.0,0,0.489,739.2,80.6,1
81229,650392518,89.0,86.0,-83.0,0,0.486,739.2,80.6,1
81230,650400517,91.0,87.0,-82.0,0,0.483,739.2,80.6,1
81231,650408517,93.0,89.0,-80.0,0,0.489,739.2,80.6,1
81232,650416517,94.0,90.0,-79.0,0,0.474,739.2,80.6,1
81233,650424517,99.0,92.0,-77.0,0,0.481,740.8,80.6,1
81234,650432517,98.0,94.0,-75.0,0,0.476,740.8,80.6,1
81235,650440517,100.0,95.0,-73.0,0,0.471,740.8,80.6,1
81236,650448517,103.0,97.0,-71.0,0,0.466,740.8,80.6,1
81237,650456517,105.0,99.0,-69.0,0,0.461,740.8,80.6,1
81238,650464519,107.0,101.0,-67.0,0,0.456,740.8,80.6,1
81239,650472517,107.0,102.0,-65.0,0,0.452,740.8,80.6,1
81240,650480519,112.0,105.0,-63.0,0,0.447,740.8,80.6,1
81241,650488517,116.0,107.0,-60.0,0,0.453,740.8,80.6,1
81242,650496517,123.0,111.0,-57.0,0,0.447,740.8,80.6,1
81243,650504517,137.0,117.0,-53.0,0,0.452,740.8,80.6,1
81244,650512517,148.0,125.0,-48.0,0,0.455,740.8,80.6,1
81245,650520517,166.0,135.0,-42.0,0,0.456,740.8,80.6,1
81246,650528517,190.0,148.0,-33.0,0,0.477,740.8,80.6,1
81247,650536517,214.0,164.0,-23.0,0,0.47,740.8,80.6,1
81248,650544517,242.0,183.0,-10.0,0,0.479,740.8,80.6,1
81249,650552517,268.0,204.0,5.0,0,0.521,740.8,80.6,1
81250,650560517,299.0,227.0,23.0,0,0.581,740.8,80.6,1
81251,650568517,324.0,250.0,41.0,0,0.618,740.8,80.6,1
81252,650576521,349.0,274.0,61.0,0,0.672,740.8,80.6,1
81253,650584517,374.0,298.0,83.0,0,0.728,740.8,80.6,1
81254,650592519,396.0,322.0,104.0,0,0.762,740.8,80.6,1
81255,650600520,408.0,343.0,125.0,0,0.797,740.8,80.6,1
81256,650608517,427.0,363.0,145.0,0,0.82,740.8,80.6,1
81257,650616521,432.0,380.0,164.0,0,0.837,740.8,80.6,1
81258,650624518,436.0,394.0,181.0,0,0.839,740.8,80.6,1
81259,650632517,435.0,404.0,196.0,0,0.834,740.8,80.6,1
81260,650640517,431.0,410.0,208.0,0,0.812,740.8,80.6,1
81261,650648517,424.0,414.0,217.0,0,0.783,740.8,80.6,1
81262,650656517,413.0,413.0,223.0,0,0.748,740.8,80.6,1
81263,650664517,404.0,411.0,226.0,0,0.711,740.8,80.6,1
81264,650672519,383.0,404.0,225.0,1,0.685,740.8,80.6,1
81265,650680517,369.0,396.0,223.0,0,0.693,740.8,80.6,1
81266,650688517,351.0,385.0,217.0,0,0.736,740.8,80.6,1
81267,650696517,328.0,371.0,209.0,0,0.752,740.8,80.6,1
81268,650704517,312.0,357.0,198.0,0,0.776,740.8,80.6,1
81269,650712518,287.0,340.0,186.0,0,0.772,740.8,80.6,1
81270,650720517,267.0,322.0,171.0,0,0.781,740.8,80.6,1
81271,650728517,244.0,303.0,156.0,0,0.758,734.4,81.5,1
81272,650736523,223.0,284.0,139.0,0,0.746,734.4,81.5,1
81273,650744517,204.0,264.0,121.0,0,0.721,734.4,81.5,1
81274,650752517,180.0,244.0,102.0,0,0.691,734.4,81.5,1
81275,650760517,164.0,225.0,83.0,0,0.652,734.4,81.5,1
81276,650768517,146.0,206.0,64.0,0,0.613,734.4,81.5,1
81277,650776517,131.0,187.0,45.0,0,0.574,734.4,81.5,1
81278,650784518,117.0,170.0,27.0,0,0.532,734.4,81.5,1
81279,650792517,108.0,155.0,10.0,0,0.497,734.4,81.5,1
81280,650800517,99.0,142.0,-6.0,0,0.517,734.4,81.5,1
81281,650808517,94.0,130.0,-21.0,0,0.536,734.4,81.5,1
81282,650816518,88.0,120.0,-34.0,0,0.542,734.4,81.5,1
81283,650824517,89.0,112.0,-46.0,0,0.556,734.4,81.5,1
81284,650832517,87.0,106.0,-56.0,0,0.554,734.4,81.5,1
81285,650840519,86.0,101.0,-64.0,0,0.547,734.4,81.5,1
81286,650848517,88.0,98.0,-71.0,0,0.549,734.4,81.5,1
81287,650856517,88.0,96.0,-76.0,0,0.535,734.4,81.5,1
81288,650864517,91.0,95.0,-80.0,0,0.531,734.4,81.5,1
81289,650872517,90.0,93.0,-83.0,0,0.526,734.4,81.5,1
81290,650880517,92.0,93.0,-85.0,0,0.518,734.4,81.5,1
81291,650888517,91.0,93.0,-86.0,0,0.509,734.4,81.5,1
81292,650896517,92.0,92.0,-87.0,0,0.51,734.4,81.5,1
81293,650904517,94.0,93.0,-87.0,1,0.499,734.4,81.5,1
81294,650912517,92.0,93.0,-88.0,0,0.511,734.4,81.5,1
81295,650920517,94.0,93.0,-87.0,1,0.509,734.4,81.5,1
81296,650928517,92.0,93.0,-87.0,1,0.498,734.4,81.5,1
81297,650936517,89.0,92.0,-87.0,0,0.497,734.4,81.5,1
81298,650944517,90.0,91.0,-87.0,0,0.496,734.4,81.5,1
81299,650952517,86.0,90.0,-87.0,0,0.495,734.4,81.5,1
81300,650960517,83.0,88.0,-88.0,0,0.507,734.4,81.5,1
81301,650968517,84.0,87.0,-88.0,1,0.495,734.4,81.5,1
81302,650976517,80.0,86.0,-89.0,0,0.507,734.4,81.5,1
81303,650984517,78.0,84.0,-90.0,0,0.508,734.4,81.5,1
81304,650992517,76.0,82.0,-90.0,1,0.496,734.4,81.5,1
81305,651000517,80.0,81.0,-91.0,0,0.507,734.4,81.5,1
81306,651008517,75.0,80.0,-92.0,0,0.508,734.4,81.5,1
81307,651016517,73.0,78.0,-93.0,0,0.509,734.4,81.5,1
81308,651024519,76.0,78.0,-93.0,1,0.497,734.4,81.5,1
81309,651032517,73.0,77.0,-94.0,0,0.509,734.4,81.5,1
81310,651040517,74.0,76.0,-94.0,1,0.497,734.4,81.5,1
81311,651048518,73.0,75.0,-94.0,0,0.496,736.0,81.5,1
81312,651056519,74.0,75.0,-94.0,0,0.495,736.0,81.5,1
81313,651064517,79.0,76.0,-94.0,0,0.494,736.0,81.5,1
81314,651072517,78.0,76.0,-93.0,0,0.502,736.0,81.5,1
81315,651080517,80.0,77.0,-93.0,1,0.49,736.0,81.5,1
81316,651088517,82.0,78.0,-91.0,0,0.508,736.0,81.5,1
81317,651096518,83.0,80.0,-90.0,0,0.493,736.0,81.5,1
81318,651104517,85.0,81.0,-89.0,0,0.49,736.0,81.5,1
81319,651112517,84.0,82.0,-87.0,0,0.497,736.0,81.5,1
81320,651120517,87.0,83.0,-86.0,0,0.482,736.0,81.5,1
81321,651128517,91.0,85.0,-84.0,0,0.489,736.0,81.5,1
81322,651136517,92.0,87.0,-82.0,0,0.483,736.0,81.5,1
81323,651144517,97.0,89.0,-80.0,0,0.478,736.0,81.5,1
81324,651152517,97.0,91.0,-78.0,0,0.473,736.0,81.5,1
81325,651160517,103.0,94.0,-75.0,0,0.479,736.0,81.5,1
81326,651168517,104.0,96.0,-72.0,0,0.472,736.0,81.5,1
81327,651176517,104.0,98.0,-70.0,0,0.455,736.0,81.5,1
81328,651184517,108.0,101.0,-67.0,0,0.46,736.0,81.5,1
81329,651192517,108.0,102.0,-65.0,0,0.443,736.0,81.5,1
81330,651200517,112.0,105.0,-62.0,0,0.449,736.0,81.5,1
81331,651208517,115.0,107.0,-59.0,0,0.443,736.0,81.5,1
81332,651216521,120.0,110.0,-57.0,0,0.426,736.0,81.5,1
81333,651224517,132.0,116.0,-53.0,0,0.444,736.0,81.5,1
81334,651232517,139.0,121.0,-49.0,0,0.435,736.0,81.5,1
81335,651240521,151.0,128.0,-43.0,0,0.45,736.0,81.5,1
81336,651248517,171.0,139.0,-37.0,0,0.438,736.0,81.5,1
81337,651256517,191.0,151.0,-28.0,0,0.459,736.0,81.5,1
81338,651264517,216.0,167.0,-18.0,0,0.453,736.0,81.5,1
81339,651272517,240.0,185.0,-5.0,0,0.48,736.0,81.5,1
81340,651280517,269.0,205.0,9.0,0,0.516,736.0,81.5,1
81341,651288517,297.0,227.0,26.0,0,0.575,736.0,81.5,1
81342,651296518,320.0,250.0,44.0,0,0.618,736.0,81.5,1
81343,651304517,350.0,274.0,64.0,0,0.671,736.0,81.5,1
81344,651312518,369.0,297.0,84.0,0,0.71,736.0,81.5,1
81345,651320519,392.0,320.0,105.0,0,0.755,736.0,81.5,1
81346,651328517,404.0,340.0,125.0,0,0.781,736.0,81.5,1
81347,651336517,416.0,359.0,145.0,0,0.81,736.0,81.5,1
81348,651344517,423.0,374.0,163.0,0,0.818,736.0,81.5,1
81349,651352517,422.0,386.0,178.0,0,0.809,736.0,81.5,1
81350,651360517,422.0,395.0,192.0,0,0.812,736.0,81.5,1
81351,651368517,421.0,401.0,202.0,0,0.776,736.0,81.5,1
81352,651376521,413.0,404.0,211.0,0,0.77,736.0,81.5,1
81353,651384517,408.0,405.0,216.0,0,0.724,736.0,81.5,1
81354,651392517,393.0,402.0,219.0,0,0.7,736.0,81.5,1
81355,651400517,377.0,396.0,219.0,1,0.664,736.0,81.5,1
81356,651408517,360.0,387.0,216.0,0,0.694,736.0,81.5,1
81357,651416517,340.0,376.0,210.0,0,0.724,736.0,81.5,1
81358,651424521,320.0,362.0,202.0,0,0.739,736.0,81.5,1
81359,651432517,298.0,347.0,191.0,0,0.76,736.0,81.5,1
81360,651440517,276.0,330.0,178.0,0,0.764,736.0,81.5,1
81361,651448518,252.0,311.0,163.0,0,0.762,729.6,82.4,1
81362,651456517,228.0,291.0,147.0,0,0.745,729.6,82.4,1
81363,651464517,208.0,271.0,129.0,0,0.73,729.6,82.4,1
81364,651472517,186.0,250.0,111.0,0,0.697,729.6,82.4,1
81365,651480519,167.0,230.0,92.0,0,0.667,729.6,82.4,1
81366,651488517,150.0,211.0,72.0,0,0.633,729.6,82.4,1
81367,651496517,132.0,192.0,53.0,0,0.589,729.6,82.4,1
81368,651504517,122.0,175.0,35.0,0,0.547,729.6,82.4,1
81369,651512517,109.0,159.0,17.0,0,0.514,729.6,82.4,1
81370,651520517,102.0,145.0,0.0,0,0.507,729.6,82.4,1
81371,651528517,94.0,133.0,-15.0,0,0.516,729.6,82.4,1
81372,651536517,90.0,122.0,-29.0,0,0.533,729.6,82.4,1
81373,651544517,88.0,114.0,-41.0,0,0.535,729.6,82.4,1
81374,651552517,88.0,108.0,-51.0,0,0.533,729.6,82.4,1
81375,651560519,87.0,103.0,-59.0,0,0.526,729.6,82.4,1
81376,651568517,88.0,99.0,-66.0,0,0.528,729.6,82.4,1
81377,651576517,90.0,97.0,-72.0,0,0.528,729.6,82.4,1
81378,651584517,93.0,96.0,-76.0,0,0.512,729.6,82.4,1
81379,651592518,95.0,96.0,-79.0,0,0.507,729.6,82.4,1
81380,651600517,97.0,96.0,-80.0,0,0.487,729.6,82.4,1
81381,651608517,101.0,97.0,-81.0,0,0.488,729.6,82.4,1
81382,651616517,100.0,98.0,-81.0,1,0.478,729.6,82.4,1
81383,651624517,107.0,100.0,-81.0,0,0.477,729.6,82.4,1
81384,651632517,105.0,101.0,-80.0,0,0.485,729.6,82.4,1
81385,651640517,106.0,102.0,-79.0,0,0.483,729.6,82.4,1
81386,651648517,106.0,103.0,-77.0,0,0.489,729.6,82.4,1
81387,651656519,102.0,103.0,-76.0,0,0.476,729.6,82.4,1
81388,651664517,103.0,103.0,-76.0,1,0.465,729.6,82.4,1
81389,651672517,100.0,102.0,-75.0,0,0.473,728.0,82.4,1
81390,651680517,97.0,101.0,-75.0,1,0.462,728.0,82.4,1
81391,651688517,98.0,100.0,-75.0,0,0.461,728.0,82.4,1
81392,651696519,95.0,99.0,-75.0,0,0.46,728.0,82.4,1
81393,651704517,93.0,98.0,-76.0,0,0.471,728.0,82.4,1
81394,651712517,90.0,96.0,-76.0,1,0.46,728.0,82.4,1
81395,651720517,90.0,94.0,-77.0,0,0.471,728.0,82.4,1
81396,651728517,91.0,94.0,-78.0,0,0.472,728.0,82.4,1
81397,651736517,86.0,92.0,-78.0,1,0.46,728.0,82.4,1
81398,651744517,89.0,91.0,-79.0,0,0.472,728.0,82.4,1
81399,651752517,87.0,90.0,-80.0,0,0.473,728.0,82.4,1
81400,651760521,88.0,90.0,-80.0,1,0.461,728.0,82.4,1
81401,651768517,89.0,89.0,-80.0,0,0.46,728.0,82.4,1
81402,651776517,89.0,89.0,-80.0,0,0.459,728.0,82.4,1
81403,651784517,92.0,90.0,-80.0,0,0.458,728.0,82.4,1
81404,651792517,92.0,90.0,-79.0,0,0.466,728.0,82.4,1
81405,651800517,94.0,91.0,-78.0,0,0.463,728.0,82.4,1
81406,651808517,96.0,92.0,-77.0,0,0.461,728.0,82.4,1
81407,651816517,96.0,93.0,-76.0,0,0.458,728.0,82.4,1
81408,651824517,96.0,94.0,-75.0,0,0.454,728.0,82.4,1
81409,651832517,99.0,95.0,-74.0,0,0.451,728.0,82.4,1
81410,651840517,97.0,96.0,-73.0,0,0.448,728.0,82.4,1
81411,651848517,98.0,96.0,-72.0,0,0.445,728.0,82.4,1
81412,651856521,100.0,97.0,-70.0,0,0.452,728.0,82.4,1
81413,651864517,105.0,99.0,-69.0,0,0.437,728.0,82.4,1
81414,651872517,103.0,100.0,-67.0,0,0.444,728.0,82.4,1
81415,651880517,107.0,102.0,-66.0,0,0.43,728.0,82.4,1
81416,651888517,108.0,103.0,-64.0,0,0.437,728.0,82.4,1
81417,651896517,108.0,104.0,-62.0,0,0.432,728.0,82.4,1
81418,651904518,112.0,106.0,-60.0,0,0.428,728.0,82.4,1
81419,651912517,113.0,108.0,-59.0,0,0.413,728.0,82.4,1
81420,651920517,113.0,109.0,-57.0,0,0.421,728.0,82.4,1
81421,651928517,117.0,111.0,-55.0,0,0.417,728.0,82.4,1
81422,651936519,120.0,113.0,-53.0,0,0.413,728.0,82.4,1
81423,651944517,131.0,118.0,-50.0,0,0.419,728.0,82.4,1
81424,651952517,139.0,123.0,-46.0,0,0.424,728.0,82.4,1
81425,651960517,152.0,130.0,-42.0,0,0.416,728.0,82.4,1
81426,651968517,168.0,139.0,-36.0,0,0.431,728.0,82.4,1
81427,651976517,186.0,150.0,-28.0,0,0.442,728.0,82.4,1
81428,651984518,210.0,165.0,-19.0,0,0.438,728.0,82.4,1
81429,651992517,232.0,181.0,-7.0,0,0.469,728.0,82.4,1
81430,652000519,262.0,201.0,6.0,0,0.503,728.0,82.4,1
81431,652008517,287.0,222.0,22.0,0,0.561,728.0,82.4,1
81432,652016516,313.0,244.0,39.0,0,0.603,728.0,82.4,1
81433,652024517,341.0,267.0,58.0,0,0.655,728.0,82.4,1
81434,652032517,364.0,291.0,78.0,0,0.701,728.0,82.4,1
81435,652040519,383.0,313.0,99.0,0,0.746,728.0,82.4,1
81436,652048517,401.0,334.0,119.0,0,0.773,728.0,82.4,1
81437,652056517,411.0,353.0,138.0,0,0.795,728.0,82.4,1
81438,652064521,422.0,370.0,157.0,0,0.819,728.0,82.4,1
81439,652072517,423.0,383.0,173.0,0,0.813,728.0,82.4,1
81440,652080516,427.0,393.0,187.0,0,0.808,728.0,82.4,1
81441,652088517,425.0,401.0,199.0,0,0.796,728.0,82.4,1
81442,652096517,416.0,405.0,208.0,0,0.768,728.0,82.4,1
81443,652104517,411.0,406.0,215.0,0,0.748,728.0,82.4,1
81444,652112517,399.0,404.0,219.0,0,0.713,728.0,82.4,1
81445,652120517,383.0,399.0,219.0,1,0.665,728.0,82.4,1
81446,652128517,369.0,392.0,217.0,0,0.684,728.0,82.4,1
81447,652136517,349.0,382.0,213.0,0,0.703,728.0,82.4,1
81448,652144517,332.0,370.0,206.0,0,0.731,728.0,82.4,1
81449,652152517,312.0,356.0,196.0,0,0.755,728.0,82.4,1
81450,652160517,291.0,340.0,185.0,0,0.753,728.0,82.4,1
81451,652168517,273.0,324.0,171.0,0,0.765,728.0,82.4,1
81452,652176517,248.0,305.0,157.0,0,0.743,728.0,82.4,1
81453,652184517,231.0,287.0,141.0,0,0.736,728.0,82.4,1
81454,652192517,210.0,269.0,124.0,0,0.714,728.0,82.4,1
81455,652200517,193.0,250.0,106.0,0,0.687,728.0,82.4,1
81456,652208517,173.0,232.0,88.0,0,0.652,728.0,82.4,1
81457,652216517,152.0,212.0,70.0,0,0.615,728.0,82.4,1
81458,652224519,140.0,195.0,52.0,0,0.579,728.0,82.4,1
81459,652232518,123.0,177.0,34.0,0,0.544,728.0,82.4,1
81460,652240519,114.0,162.0,17.0,0,0.506,728.0,82.4,1
81461,652248517,104.0,148.0,1.0,0,0.498,728.0,82.4,1
81462,652256517,94.0,135.0,-14.0,0,0.515,728.0,82.4,1
81463,652264518,92.0,124.0,-28.0,0,0.532,728.0,82.4,1
81464,652272518,90.0,116.0,-40.0,0,0.534,728.0,82.4,1
81465,652280517,91.0,110.0,-50.0,0,0.532,728.0,82.4,1
81466,652288517,92.0,106.0,-59.0,0,0.539,728.0,82.4,1
81467,652296517,92.0,102.0,-65.0,0,0.516,726.4,82.4,1
81468,652304517,97.0,101.0,-70.0,0,0.515,726.4,82.4,1
81469,652312517,99.0,101.0,-74.0,0,0.511,726.4,82.4,1
81470,652320517,102.0,101.0,-76.0,0,0.492,726.4,82.4,1
81471,652328517,105.0,102.0,-78.0,0,0.496,726.4,82.4,1
81472,652336517,103.0,102.0,-78.0,1,0.475,726.4,82.4,1
81473,652344517,108.0,104.0,-78.0,0,0.475,726.4,82.4,1
81474,652352517,105.0,104.0,-78.0,0,0.474,726.4,82.4,1
81475,652360519,107.0,105.0,-77.0,0,0.482,726.4,82.4,1
81476,652368521,107.0,105.0,-76.0,0,0.48,726.4,82.4,1
81477,652376517,102.0,104.0,-76.0,1,0.469,726.4,82.4,1
81478,652384517,105.0,105.0,-76.0,0,0.469,726.4,82.4,1
81479,652392517,103.0,104.0,-75.0,0,0.477,726.4,82.4,1
81480,652400517,102.0,104.0,-75.0,1,0.465,726.4,82.4,1
81481,652408518,100.0,103.0,-75.0,0,0.465,726.4,82.4,1
81482,652416517,98.0,102.0,-75.0,0,0.464,726.4,82.4,1
81483,652424517,98.0,101.0,-75.0,0,0.463,726.4,82.4,1
81484,652432517,92.0,99.0,-76.0,0,0.474,726.4,82.4,1
81485,652440518,89.0,96.0,-77.0,0,0.475,726.4,82.4,1
81486,652448517,90.0,95.0,-78.0,0,0.476,726.4,82.4,1
81487,652456517,88.0,93.0,-79.0,0,0.477,726.4,82.4,1
81488,652464517,87.0,92.0,-80.0,0,0.478,726.4,82.4,1
81489,652472517,84.0,90.0,-81.0,0,0.479,726.4,82.4,1
81490,652480518,84.0,88.0,-82.0,0,0.48,726.4,82.4,1
81491,652488517,84.0,87.0,-83.0,0,0.481,726.4,82.4,1
81492,652496517,83.0,86.0,-83.0,1,0.469,726.4,82.4,1
81493,652504517,84.0,86.0,-84.0,0,0.481,726.4,82.4,1
81494,652512517,83.0,85.0,-84.0,1,0.469,726.4,82.4,1
81495,652520517,82.0,84.0,-85.0,0,0.481,726.4,82.4,1
81496,652528517,84.0,84.0,-85.0,1,0.469,726.4,82.4,1
81497,652536517,86.0,85.0,-85.0,0,0.468,726.4,82.4,1
81498,652544517,88.0,85.0,-84.0,0,0.476,726.4,82.4,1
81499,652552517,89.0,86.0,-83.0,0,0.473,726.4,82.4,1
81500,652560517,92.0,88.0,-82.0,0,0.47,726.4,82.4,1
81501,652568517,95.0,89.0,-81.0,0,0.467,726.4,82.4,1
81502,652576517,94.0,91.0,-79.0,0,0.474,726.4,82.4,1
81503,652584517,97.0,92.0,-78.0,0,0.459,726.4,82.4,1
81504,652592519,99.0,94.0,-76.0,0,0.466,726.4,82.4,1
81505,652600517,100.0,95.0,-74.0,0,0.461,726.4,82.4,1
81506,652608517,103.0,97.0,-72.0,0,0.456,728.0,82.4,1
81507,652616517,103.0,99.0,-70.0,0,0.451,728.0,82.4,1
81508,652624519,104.0,100.0,-68.0,0,0.447,728.0,82.4,1
81509,652632517,105.0,101.0,-66.0,0,0.442,728.0,82.4,1
81510,652640522,106.0,102.0,-65.0,0,0.428,728.0,82.4,1
81511,652648516,112.0,105.0,-63.0,0,0.435,728.0,82.4,1
81512,652656522,111.0,106.0,-61.0,0,0.431,728.0,82.4,1
81513,652664516,119.0,109.0,-58.0,0,0.438,728.0,82.4,1
81514,652672518,124.0,113.0,-55.0,0,0.432,728.0,82.4,1
81515,652680517,136.0,118.0,-52.0,0,0.426,728.0,82.4,1
81516,652688519,152.0,127.0,-47.0,0,0.442,728.0,82.4,1
81517,652696517,165.0,136.0,-40.0,0,0.454,728.0,82.4,1
81518,652704519,188.0,149.0,-32.0,0,0.452,728.0,82.4,1
81519,652712517,213.0,164.0,-22.0,0,0.458,728.0,82.4,1
81520,652720517,239.0,182.0,-9.0,0,0.476,728.0,82.4,1
81521,652728517,270.0,204.0,6.0,0,0.522,728.0,82.4,1
81522,652736517,293.0,225.0,22.0,0,0.561,728.0,82.4,1
81523,652744517,324.0,249.0,41.0,0,0.621,728.0,82.4,1
81524,652752519,348.0,273.0,61.0,0,0.668,728.0,82.4,1
81525,652760517,371.0,297.0,82.0,0,0.715,728.0,82.4,1
81526,652768517,391.0,320.0,103.0,0,0.753,728.0,82.4,1
81527,652776517,405.0,340.0,123.0,0,0.78,728.0,82.4,1
81528,652784517,421.0,360.0,143.0,0,0.809,728.0,82.4,1
81529,652792517,429.0,377.0,162.0,0,0.826,728.0,82.4,1
81530,652800521,435.0,391.0,179.0,0,0.828,728.0,82.4,1
81531,652808517,438.0,402.0,194.0,0,0.824,728.0,82.4,1
81532,652816517,431.0,409.0,206.0,0,0.803,728.0,82.4,1
81533,652824517,426.0,413.0,215.0,0,0.774,728.0,82.4,1
81534,652832518,413.0,413.0,222.0,0,0.753,728.0,82.4,1
81535,652840517,402.0,410.0,225.0,0,0.705,728.0,82.4,1
81536,652848517,388.0,405.0,225.0,1,0.669,728.0,82.4,1
81537,652856517,370.0,397.0,222.0,0,0.699,728.0,82.4,1
81538,652864517,354.0,386.0,217.0,0,0.718,728.0,82.4,1
81539,652872517,332.0,373.0,209.0,0,0.746,728.0,82.4,1
81540,652880517,315.0,359.0,200.0,0,0.747,728.0,82.4,1
81541,652888517,296.0,344.0,188.0,0,0.766,728.0,82.4,1
81542,652896518,272.0,326.0,174.0,0,0.768,728.0,82.4,1
81543,652904517,251.0,308.0,159.0,0,0.755,728.0,82.4,1
81544,652912517,229.0,289.0,142.0,0,0.744,728.0,82.4,1
81545,652920518,208.0,269.0,125.0,0,0.714,728.0,82.4,1
81546,652928517,190.0,250.0,107.0,0,0.688,728.0,82.4,1
81547,652936517,172.0,231.0,88.0,0,0.657,728.0,82.4,1
81548,652944517,154.0,212.0,70.0,0,0.614,728.0,82.4,1
81549,652952517,140.0,195.0,51.0,0,0.583,728.0,82.4,1
81550,652960517,124.0,178.0,33.0,0,0.541,728.0,82.4,1
81551,652968517,116.0,163.0,16.0,0,0.503,728.0,82.4,1
81552,652976517,104.0,149.0,0.0,0,0.501,728.0,82.4,1
81553,652984517,100.0,137.0,-15.0,0,0.518,728.0,82.4,1
81554,652992517,94.0,126.0,-28.0,0,0.523,728.0,82.4,1
81555,653000517,92.0,118.0,-40.0,0,0.536,728.0,82.4,1
81556,653008517,92.0,112.0,-50.0,0,0.534,728.0,82.4,1
81557,653016517,93.0,107.0,-58.0,0,0.527,728.0,82.4,1
81558,653024517,96.0,104.0,-65.0,0,0.529,728.0,82.4,1
81559,653032521,95.0,102.0,-70.0,0,0.516,728.0,82.4,1
81560,653040517,97.0,101.0,-74.0,0,0.512,728.0,82.4,1
81561,653048517,100.0,101.0,-77.0,0,0.507,728.0,82.4,1
81562,653056517,100.0,101.0,-79.0,0,0.5,728.0,82.4,1
81563,653064517,101.0,101.0,-80.0,0,0.491,728.0,82.4,1
81564,653072517,104.0,101.0,-80.0,1,0.48,728.0,82.4,1
81565,653080517,106.0,103.0,-80.0,0,0.48,728.0,82.4,1
81566,653088517,108.0,104.0,-79.0,0,0.488,728.0,82.4,1
81567,653096517,105.0,104.0,-79.0,1,0.477,728.0,82.4,1
81568,653104522,106.0,105.0,-78.0,0,0.485,728.0,82.4,1
81569,653112517,104.0,104.0,-77.0,0,0.483,728.0,82.4,1
81570,653120517,101.0,104.0,-77.0,1,0.472,728.0,82.4,1
81571,653128517,99.0,102.0,-77.0,0,0.471,728.0,82.4,1
81572,653136518,95.0,101.0,-77.0,0,0.47,728.0,82.4,1
81573,653144517,96.0,100.0,-77.0,0,0.469,728.0,82.4,1
81574,653152519,89.0,97.0,-78.0,0,0.481,728.0,82.4,1
81575,653160517,88.0,95.0,-79.0,0,0.482,728.0,82.4,1
81576,653168517,85.0,92.0,-81.0,0,0.496,728.0,82.4,1
81577,653176517,81.0,90.0,-82.0,0,0.485,728.0,82.4,1
81578,653184517,79.0,87.0,-84.0,0,0.499,728.0,82.4,1
81579,653192517,77.0,85.0,-86.0,0,0.502,728.0,82.4,1
81580,653200519,73.0,82.0,-87.0,0,0.492,728.0,82.4,1
81581,653208517,73.0,80.0,-89.0,0,0.506,728.0,82.4,1
81582,653216519,72.0,78.0,-91.0,0,0.509,728.0,82.4,1
81583,653224517,73.0,77.0,-92.0,0,0.499,728.0,82.4,1
81584,653232517,70.0,75.0,-93.0,0,0.5,728.0,82.4,1
81585,653240519,70.0,74.0,-94.0,0,0.501,728.0,82.4,1
81586,653248517,74.0,74.0,-95.0,0,0.502,728.0,82.4,1
81587,653256517,75.0,74.0,-95.0,1,0.49,728.0,82.4,1
81588,653264517,76.0,75.0,-95.0,0,0.489,728.0,82.4,1
81589,653272517,77.0,75.0,-94.0,0,0.497,728.0,82.4,1
81590,653280517,79.0,76.0,-94.0,1,0.485,728.0,82.4,1
81591,653288519,83.0,78.0,-92.0,0,0.503,728.0,82.4,1
81592,653296518,83.0,79.0,-91.0,0,0.488,728.0,82.4,1
81593,653304517,87.0,81.0,-89.0,0,0.495,728.0,82.4,1
81594,653312517,87.0,82.0,-87.0,0,0.49,728.0,82.4,1
81595,653320518,91.0,85.0,-85.0,0,0.485,728.0,82.4,1
81596,653328517,93.0,87.0,-83.0,0,0.48,728.0,82.4,1
81597,653336517,96.0,89.0,-81.0,0,0.475,728.0,82.4,1
81598,653344517,97.0,91.0,-78.0,0,0.48,728.0,82.4,1
81599,653352517,96.0,92.0,-76.0,0,0.463,728.0,82.4,1
81600,653360517,96.0,93.0,-74.0,0,0.458,728.0,82.4,1
81601,653368517,100.0,95.0,-72.0,0,0.454,728.0,82.4,1
81602,653376517,99.0,96.0,-70.0,0,0.45,728.0,82.4,1
81603,653384517,103.0,98.0,-68.0,0,0.445,728.0,82.4,1
81604,653392517,105.0,99.0,-66.0,0,0.441,728.0,82.4,1
81605,653400517,111.0,102.0,-64.0,0,0.437,728.0,82.4,1
81606,653408517,120.0,106.0,-61.0,0,0.443,728.0,82.4,1
81607,653416517,131.0,112.0,-57.0,0,0.448,728.0,82.4,1
81608,653424517,148.0,121.0,-52.0,0,0.451,728.0,82.4,1
81609,653432521,164.0,131.0,-45.0,0,0.464,728.0,82.4,1
81610,653440517,188.0,145.0,-36.0,0,0.472,728.0,82.4,1
81611,653448517,214.0,162.0,-25.0,0,0.475,728.0,82.4,1
81612,653456517,240.0,181.0,-12.0,0,0.474,728.0,82.4,1
81613,653464517,271.0,203.0,4.0,0,0.528,728.0,82.4,1
81614,653472517,300.0,226.0,22.0,0,0.578,728.0,82.4,1
81615,653480517,327.0,251.0,41.0,0,0.622,728.0,82.4,1
81616,653488517,356.0,276.0,62.0,0,0.676,728.0,82.4,1
81617,653496518,376.0,300.0,84.0,0,0.724,728.0,82.4,1
81618,653504517,399.0,324.0,106.0,0,0.764,728.0,82.4,1
81619,653512517,415.0,346.0,128.0,0,0.799,728.0,82.4,1
81620,653520517,428.0,366.0,148.0,0,0.815,728.0,82.4,1
81621,653528517,437.0,383.0,168.0,0,0.839,728.0,82.4,1
81622,653536517,439.0,397.0,185.0,0,0.834,728.0,82.4,1
81623,653544517,439.0,407.0,200.0,0,0.829,728.0,82.4,1
81624,653552517,435.0,414.0,212.0,0,0.807,728.0,82.4,1
81625,653560517,428.0,417.0,221.0,0,0.778,728.0,82.4,1
81626,653568517,418.0,417.0,227.0,0,0.744,728.0,82.4,1
81627,653576517,402.0,414.0,230.0,0,0.708,728.0,82.4,1
81628,653584519,391.0,408.0,230.0,1,0.672,728.0,82.4,1
81629,653592517,368.0,398.0,227.0,0,0.702,728.0,82.4,1
81630,653600517,351.0,387.0,221.0,0,0.732,728.0,82.4,1
81631,653608517,332.0,374.0,212.0,0,0.759,728.0,82.4,1
81632,653616517,311.0,358.0,202.0,0,0.759,728.0,82.4,1
81633,653624520,291.0,342.0,189.0,0,0.776,728.0,82.4,1
81634,653632517,268.0,324.0,175.0,0,0.767,728.0,82.4,1
81635,653640517,246.0,305.0,159.0,0,0.762,728.0,82.4,1
81636,653648517,225.0,286.0,141.0,0,0.748,728.0,82.4,1
81637,653656517,204.0,266.0,123.0,0,0.716,728.0,82.4,1
81638,653664518,184.0,246.0,105.0,0,0.682,728.0,82.4,1
81639,653672517,163.0,226.0,86.0,0,0.651,728.0,82.4,1
81640,653680517,147.0,207.0,66.0,0,0.618,728.0,82.4,1
81641,653688518,136.0,190.0,48.0,0,0.568,728.0,82.4,1
81642,653696517,120.0,173.0,30.0,0,0.534,728.0,82.4,1
81643,653704518,111.0,158.0,13.0,0,0.496,728.0,82.4,1
81644,653712517,99.0,144.0,-4.0,0,0.516,728.0,82.4,1
81645,653720517,92.0,131.0,-19.0,0,0.526,728.0,82.4,1
81646,653728517,88.0,121.0,-32.0,0,0.531,728.0,82.4,1
81647,653736517,83.0,111.0,-44.0,0,0.544,728.0,82.4,1
81648,653744517,81.0,104.0,-55.0,0,0.555,728.0,82.4,1
81649,653752521,80.0,98.0,-64.0,0,0.551,728.0,82.4,1
81650,653760517,79.0,94.0,-72.0,0,0.555,728.0,82.4,1
81651,653768518,80.0,90.0,-78.0,0,0.543,728.0,82.4,1
81652,653776517,78.0,87.0,-83.0,0,0.541,728.0,82.4,1
81653,653784517,79.0,85.0,-87.0,0,0.537,728.0,82.4,1
81654,653792517,79.0,84.0,-91.0,0,0.544,728.0,82.4,1
81655,653800517,80.0,83.0,-93.0,0,0.525,728.0,82.4,1
81656,653808517,80.0,82.0,-94.0,0,0.516,728.0,82.4,1
81657,653816519,77.0,81.0,-96.0,0,0.53,728.0,82.4,1
81658,653824517,81.0,81.0,-97.0,0,0.52,728.0,82.4,1
81659,653832517,79.0,80.0,-97.0,1,0.509,728.0,82.4,1
81660,653840517,76.0,79.0,-98.0,0,0.521,728.0,82.4,1
81661,653848517,79.0,79.0,-98.0,1,0.51,728.0,82.4,1
81662,653856517,74.0,78.0,-98.0,0,0.509,729.6,82.4,1
81663,653864517,75.0,77.0,-98.0,0,0.508,729.6,82.4,1
81664,653872517,72.0,76.0,-99.0,0,0.519,729.6,82.4,1
81665,653880517,72.0,75.0,-99.0,1,0.507,729.6,82.4,1
81666,653888517,71.0,74.0,-99.0,0,0.506,729.6,82.4,1
81667,653896517,68.0,73.0,-100.0,0,0.517,729.6,82.4,1
81668,653904518,67.0,71.0,-100.0,1,0.505,729.6,82.4,1
81669,653912517,66.0,70.0,-101.0,0,0.517,729.6,82.4,1
81670,653920517,67.0,69.0,-101.0,1,0.505,729.6,82.4,1
81671,653928517,65.0,68.0,-102.0,0,0.516,729.6,82.4,1
81672,653936521,63.0,67.0,-102.0,1,0.505,729.6,82.4,1
81673,653944521,64.0,66.0,-102.0,0,0.504,729.6,82.4,1
81674,653952517,62.0,65.0,-103.0,0,0.515,729.6,82.4,1
81675,653960521,64.0,65.0,-103.0,1,0.504,729.6,82.4,1
81676,653968518,64.0,65.0,-103.0,0,0.503,729.6,82.4,1
81677,653976517,63.0,64.0,-103.0,0,0.502,729.6,82.4,1
81678,653984517,67.0,65.0,-102.0,0,0.51,729.6,82.4,1
81679,653992517,65.0,65.0,-102.0,1,0.498,729.6,82.4,1
81680,654000517,65.0,65.0,-101.0,0,0.506,729.6,82.4,1
81681,654008517,70.0,66.0,-100.0,0,0.503,729.6,82.4,1
81682,654016517,68.0,67.0,-99.0,0,0.5,729.6,82.4,1
81683,654024517,71.0,68.0,-98.0,0,0.497,729.6,82.4,1
81684,654032517,74.0,69.0,-97.0,0,0.494,729.6,82.4,1
81685,654040517,77.0,71.0,-95.0,0,0.501,729.6,82.4,1
81686,654048517,80.0,73.0,-93.0,0,0.496,729.6,82.4,1
81687,654056519,80.0,75.0,-91.0,0,0.491,729.6,82.4,1
81688,654064517,86.0,78.0,-88.0,0,0.496,729.6,82.4,1
81689,654072517,88.0,80.0,-86.0,0,0.48,729.6,82.4,1
81690,654080517,90.0,83.0,-83.0,0,0.485,729.6,82.4,1
81691,654088517,95.0,86.0,-80.0,0,0.479,729.6,82.4,1
81692,654096517,96.0,88.0,-77.0,0,0.472,729.6,82.4,1
81693,654104517,100.0,91.0,-74.0,0,0.466,729.6,82.4,1
81694,654112517,101.0,93.0,-71.0,0,0.46,729.6,82.4,1
81695,654120517,102.0,95.0,-68.0,0,0.453,729.6,82.4,1
81696,654128517,108.0,99.0,-65.0,0,0.447,729.6,82.4,1
81697,654136517,111.0,102.0,-62.0,0,0.441,729.6,82.4,1
81698,654144521,119.0,106.0,-59.0,0,0.435,729.6,82.4,1
81699,654152517,127.0,111.0,-54.0,0,0.451,729.6,82.4,1
81700,654160517,141.0,118.0,-49.0,0,0.442,729.6,82.4,1
81701,654168517,156.0,127.0,-43.0,0,0.443,729.6,82.4,1
81702,654176517,175.0,139.0,-35.0,0,0.454,729.6,82.4,1
81703,654184517,199.0,153.0,-26.0,0,0.45,729.6,82.4,1
81704,654192517,221.0,170.0,-14.0,0,0.464,729.6,82.4,1
81705,654200517,250.0,189.0,0.0,0,0.501,729.6,82.4,1
81706,654208517,275.0,210.0,16.0,0,0.548,729.6,82.4,1
81707,654216517,301.0,232.0,33.0,0,0.589,729.6,82.4,1
81708,654224517,331.0,256.0,52.0,0,0.64,729.6,82.4,1
81709,654232517,354.0,280.0,72.0,0,0.686,729.6,82.4,1
81710,654240519,376.0,303.0,93.0,0,0.73,729.6,82.4,1
81711,654248517,397.0,326.0,114.0,0,0.766,729.6,82.4,1
81712,654256517,403.0,345.0,134.0,0,0.791,729.6,82.4,1
81713,654264517,419.0,363.0,153.0,0,0.809,729.6,82.4,1
81714,654272519,424.0,378.0,170.0,0,0.814,729.6,82.4,1
81715,654280517,425.0,389.0,186.0,0,0.821,729.6,82.4,1
81716,654288517,424.0,397.0,199.0,0,0.803,729.6,82.4,1
81717,654296517,414.0,401.0,209.0,0,0.777,729.6,82.4,1
81718,654304517,411.0,404.0,216.0,0,0.745,729.6,82.4,1
81719,654312517,395.0,402.0,220.0,0,0.71,729.6,82.4,1
81720,654320517,380.0,396.0,221.0,0,0.675,729.6,82.4,1
81721,654328517,364.0,389.0,219.0,1,0.683,729.6,82.4,1
81722,654336517,343.0,378.0,214.0,0,0.712,729.6,82.4,1
81723,654344517,327.0,365.0,207.0,0,0.728,729.6,82.4,1
81724,654352517,303.0,350.0,197.0,0,0.752,729.6,82.4,1
81725,654360517,280.0,333.0,185.0,0,0.759,729.6,82.4,1
81726,654368517,259.0,315.0,171.0,0,0.76,729.6,82.4,1
81727,654376517,234.0,296.0,155.0,0,0.754,729.6,82.4,1
81728,654384517,215.0,276.0,138.0,0,0.735,729.6,82.4,1
81729,654392517,191.0,255.0,119.0,0,0.716,729.6,82.4,1
81730,654400517,173.0,235.0,101.0,0,0.674,729.6,82.4,1
81731,654408517,156.0,216.0,82.0,0,0.645,729.6,82.4,1
81732,654416517,140.0,198.0,63.0,0,0.607,729.6,82.4,1
81733,654424517,124.0,180.0,44.0,0,0.57,729.6,82.4,1
81734,654432517,111.0,163.0,26.0,0,0.53,729.6,82.4,1
81735,654440519,100.0,148.0,9.0,0,0.493,729.6,82.4,1
81736,654448518,93.0,135.0,-7.0,0,0.507,729.6,82.4,1
81737,654456517,84.0,122.0,-22.0,0,0.525,729.6,82.4,1
81738,654464517,83.0,113.0,-35.0,0,0.529,729.6,82.4,1
81739,654472517,79.0,105.0,-47.0,0,0.542,729.6,82.4,1
81740,654480517,78.0,98.0,-57.0,0,0.539,729.6,82.4,1
81741,654488517,80.0,94.0,-65.0,0,0.532,729.6,82.4,1
81742,654496517,80.0,90.0,-72.0,0,0.534,729.6,82.4,1
81743,654504517,81.0,88.0,-77.0,0,0.52,729.6,82.4,1
81744,654512517,83.0,87.0,-81.0,0,0.516,729.6,82.4,1
81745,654520518,84.0,86.0,-83.0,0,0.498,729.6,82.4,1
81746,654528517,86.0,86.0,-85.0,0,0.501,729.6,82.4,1
81747,654536517,84.0,86.0,-87.0,0,0.505,729.6,82.4,1
81748,654544517,87.0,86.0,-87.0,1,0.483,729.6,82.4,1
81749,654552518,85.0,86.0,-88.0,0,0.495,729.6,82.4,1
81750,654560517,86.0,86.0,-88.0,1,0.484,729.6,82.4,1
81751,654568517,87.0,86.0,-88.0,0,0.483,729.6,82.4,1
81752,654576517,84.0,86.0,-87.0,0,0.491,729.6,82.4,1
81753,654584518,86.0,86.0,-87.0,1,0.48,729.6,82.4,1
81754,654592521,84.0,85.0,-87.0,0,0.479,729.6,82.4,1
81755,654600517,84.0,85.0,-87.0,0,0.478,729.6,82.4,1
81756,654608517,84.0,85.0,-86.0,0,0.485,729.6,82.4,1
81757,654616517,82.0,84.0,-86.0,1,0.474,729.6,82.4,1
81758,654624517,83.0,84.0,-86.0,0,0.473,729.6,82.4,1
81759,654632517,80.0,83.0,-86.0,0,0.472,729.6,82.4,1
81760,654640517,77.0,81.0,-86.0,0,0.471,729.6,82.4,1
81761,654648517,80.0,81.0,-86.0,0,0.469,729.6,82.4,1
81762,654656517,75.0,80.0,-86.0,0,0.468,729.6,82.4,1
81763,654664517,78.0,79.0,-87.0,0,0.48,729.6,82.4,1
81764,654672517,78.0,79.0,-87.0,1,0.468,729.6,82.4,1
81765,654680518,77.0,78.0,-87.0,0,0.467,729.6,82.4,1
81766,654688517,77.0,78.0,-87.0,0,0.467,729.6,82.4,1
81767,654696517,77.0,78.0,-86.0,0,0.475,729.6,82.4,1
81768,654704517,81.0,79.0,-86.0,1,0.463,729.6,82.4,1
81769,654712517,81.0,79.0,-85.0,0,0.471,729.6,82.4,1
81770,654720517,84.0,80.0,-84.0,0,0.468,729.6,82.4,1
81771,654728517,88.0,82.0,-83.0,0,0.465,729.6,82.4,1
81772,654736517,90.0,84.0,-81.0,0,0.471,729.6,82.4,1
81773,654744519,94.0,86.0,-79.0,0,0.466,729.6,82.4,1
81774,654752517,96.0,89.0,-77.0,0,0.461,729.6,82.4,1
81775,654760517,96.0,91.0,-75.0,0,0.456,729.6,82.4,1
81776,654768517,102.0,93.0,-72.0,0,0.461,729.6,82.4,1
81777,654776517,105.0,96.0,-70.0,0,0.445,729.6,82.4,1
81778,654784521,108.0,99.0,-67.0,0,0.45,729.6,82.4,1
81779,654792517,110.0,102.0,-64.0,0,0.443,729.6,82.4,1
81780,654800517,112.0,104.0,-61.0,0,0.437,729.6,82.4,1
81781,654808517,115.0,107.0,-58.0,0,0.431,729.6,82.4,1
81782,654816519,117.0,109.0,-55.0,0,0.424,729.6,82.4,1
81783,654824517,118.0,111.0,-52.0,0,0.418,729.6,82.4,1
81784,654832519,120.0,113.0,-50.0,0,0.402,729.6,82.4,1
81785,654840517,121.0,115.0,-47.0,0,0.408,729.6,82.4,1
81786,654848520,125.0,118.0,-45.0,0,0.392,729.6,82.4,1
81787,654856520,131.0,121.0,-42.0,0,0.399,729.6,82.4,1
81788,654864517,138.0,125.0,-39.0,0,0.394,729.6,82.4,1
81789,654872517,145.0,130.0,-35.0,0,0.399,729.6,82.4,1
81790,654880517,156.0,136.0,-30.0,0,0.403,729.6,82.4,1
81791,654888517,173.0,145.0,-25.0,0,0.394,729.6,82.4,1
81792,654896519,189.0,156.0,-17.0,0,0.418,729.6,82.4,1
81793,654904517,211.0,169.0,-9.0,0,0.418,729.6,82.4,1
81794,654912517,236.0,185.0,2.0,0,0.474,729.6,82.4,1
81795,654920517,260.0,203.0,15.0,0,0.519,729.6,82.4,1
81796,654928517,287.0,224.0,30.0,0,0.567,729.6,82.4,1
81797,654936517,307.0,244.0,46.0,0,0.607,729.6,82.4,1
81798,654944517,328.0,264.0,64.0,0,0.658,729.6,82.4,1
81799,654952517,351.0,285.0,82.0,0,0.692,729.6,82.4,1
81800,654960517,371.0,306.0,100.0,0,0.724,729.6,82.4,1
81801,654968517,390.0,326.0,119.0,0,0.762,729.6,82.4,1
81802,654976517,400.0,344.0,137.0,0,0.781,729.6,82.4,1
81803,654984517,409.0,360.0,154.0,0,0.796,729.6,82.4,1
81804,654992517,414.0,373.0,170.0,0,0.805,729.6,82.4,1
81805,655000517,413.0,383.0,183.0,0,0.789,729.6,82.4,1
81806,655008517,412.0,390.0,194.0,0,0.777,729.6,82.4,1
81807,655016517,403.0,393.0,203.0,0,0.76,729.6,82.4,1
81808,655024517,396.0,394.0,209.0,0,0.728,729.6,82.4,1
81809,655032517,382.0,391.0,212.0,0,0.692,729.6,82.4,1
81810,655040517,368.0,385.0,212.0,1,0.657,729.6,82.4,1
81811,655048517,354.0,378.0,209.0,0,0.686,729.6,82.4,1
81812,655056517,336.0,368.0,204.0,0,0.704,729.6,82.4,1
81813,655064517,319.0,356.0,197.0,0,0.719,729.6,82.4,1
81814,655072517,300.0,342.0,188.0,0,0.732,729.6,82.4,1
81815,655080517,278.0,327.0,176.0,0,0.75,729.6,82.4,1
81816,655088517,255.0,309.0,163.0,0,0.741,729.6,82.4,1
81817,655096517,234.0,291.0,148.0,0,0.737,729.6,82.4,1
81818,655104518,216.0,273.0,132.0,0,0.719,729.6,82.4,1
81819,655112517,197.0,254.0,115.0,0,0.696,729.6,82.4,1
81820,655120517,178.0,236.0,97.0,0,0.67,729.6,82.4,1
81821,655128518,162.0,218.0,80.0,0,0.628,729.6,82.4,1
81822,655136517,148.0,201.0,62.0,0,0.601,729.6,82.4,1
81823,655144517,137.0,186.0,45.0,0,0.56,729.6,82.4,1
81824,655152517,124.0,171.0,29.0,0,0.521,729.6,82.4,1
81825,655160519,116.0,157.0,14.0,0,0.486,729.6,82.4,1
81826,655168517,110.0,146.0,-1.0,0,0.489,729.6,82.4,1
81827,655176517,103.0,135.0,-14.0,0,0.492,729.6,82.4,1
81828,655184517,104.0,128.0,-25.0,0,0.491,729.6,82.4,1
81829,655192517,101.0,121.0,-35.0,0,0.499,729.6,82.4,1
81830,655200517,100.0,116.0,-43.0,0,0.491,729.6,82.4,1
81831,655208517,104.0,113.0,-50.0,0,0.493,729.6,82.4,1
81832,655216517,107.0,112.0,-55.0,0,0.48,729.6,82.4,1
81833,655224517,111.0,112.0,-59.0,0,0.476,729.6,82.4,1
81834,655232517,111.0,111.0,-61.0,0,0.458,729.6,82.4,1
81835,655240519,115.0,112.0,-63.0,0,0.462,729.6,82.4,1
81836,655248517,118.0,114.0,-63.0,1,0.441,729.6,82.4,1
81837,655256521,121.0,115.0,-63.0,0,0.441,729.6,82.4,1
81838,655264517,125.0,118.0,-62.0,0,0.449,729.6,82.4,1
81839,655272518,123.0,119.0,-61.0,0,0.447,729.6,82.4,1
81840,655280519,124.0,120.0,-59.0,0,0.453,729.6,82.4,1
81841,655288517,127.0,122.0,-58.0,0,0.44,729.6,82.4,1
81842,655296517,126.0,123.0,-56.0,0,0.447,729.6,82.4,1
81843,655304519,127.0,124.0,-55.0,0,0.434,729.6,82.4,1
81844,655312519,125.0,124.0,-54.0,0,0.431,729.6,82.4,1
81845,655320517,123.0,124.0,-53.0,0,0.429,729.6,82.4,1
81846,655328517,121.0,123.0,-52.0,0,0.426,729.6,82.4,1
81847,655336517,118.0,122.0,-52.0,1,0.415,729.6,82.4,1
81848,655344517,116.0,120.0,-53.0,0,0.427,729.6,82.4,1
81849,655352517,115.0,119.0,-53.0,1,0.415,729.6,82.4,1
81850,655360519,113.0,118.0,-54.0,0,0.427,729.6,82.4,1
81851,655368517,114.0,117.0,-54.0,1,0.415,729.6,82.4,1
81852,655376519,112.0,116.0,-55.0,0,0.427,729.6,82.4,1
81853,655384517,111.0,114.0,-56.0,0,0.428,729.6,82.4,1
81854,655392517,110.0,113.0,-56.0,1,0.416,729.6,82.4,1
81855,655400517,109.0,112.0,-57.0,0,0.428,729.6,82.4,1
81856,655408517,109.0,112.0,-58.0,0,0.429,729.6,82.4,1
81857,655416517,109.0,111.0,-58.0,1,0.416,726.4,82.4,1
81858,655424519,112.0,111.0,-58.0,0,0.415,726.4,82.4,1
81859,655432521,110.0,111.0,-58.0,0,0.414,726.4,82.4,1
81860,655440517,109.0,110.0,-58.0,0,0.413,726.4,82.4,1
81861,655448517,112.0,111.0,-58.0,0,0.412,726.4,82.4,1
81862,655456517,108.0,110.0,-58.0,0,0.411,726.4,82.4,1
81863,655464517,112.0,111.0,-58.0,0,0.41,726.4,82.4,1
81864,655472517,112.0,111.0,-58.0,0,0.409,726.4,82.4,1
81865,655480517,113.0,111.0,-57.0,0,0.418,726.4,82.4,1
81866,655488517,114.0,112.0,-56.0,0,0.415,726.4,82.4,1
81867,655496517,111.0,112.0,-56.0,1,0.402,726.4,82.4,1
81868,655504517,115.0,113.0,-55.0,0,0.411,726.4,82.4,1
81869,655512517,113.0,113.0,-55.0,1,0.399,726.4,82.4,1
81870,655520517,116.0,113.0,-54.0,0,0.408,726.4,82.4,1
81871,655528517,122.0,116.0,-53.0,0,0.405,726.4,82.4,1
81872,655536519,125.0,118.0,-51.0,0,0.413,726.4,82.4,1
81873,655544517,137.0,122.0,-48.0,0,0.419,726.4,82.4,1
81874,655552517,148.0,129.0,-45.0,0,0.413,726.4,82.4,1
81875,655560517,161.0,137.0,-40.0,0,0.429,726.4,82.4,1
81876,655568517,181.0,147.0,-33.0,0,0.442,726.4,82.4,1
81877,655576519,199.0,160.0,-25.0,0,0.44,726.4,82.4,1
81878,655584517,224.0,175.0,-14.0,0,0.457,726.4,82.4,1
81879,655592517,249.0,193.0,-2.0,0,0.478,726.4,82.4,1
81880,655600517,272.0,212.0,12.0,0,0.524,726.4,82.4,1
81881,655608517,299.0,233.0,28.0,0,0.573,726.4,82.4,1
81882,655616521,323.0,255.0,46.0,0,0.625,726.4,82.4,1
81883,655624517,345.0,277.0,64.0,0,0.661,726.4,82.4,1
81884,655632517,364.0,298.0,83.0,0,0.705,726.4,82.4,1
81885,655640517,379.0,318.0,102.0,0,0.739,726.4,82.4,1
81886,655648517,396.0,337.0,121.0,0,0.771,726.4,82.4,1
81887,655656517,403.0,353.0,138.0,0,0.781,726.4,82.4,1
81888,655664517,409.0,366.0,155.0,0,0.803,726.4,82.4,1
81889,655672517,410.0,377.0,169.0,0,0.792,726.4,82.4,1
81890,655680518,409.0,385.0,181.0,0,0.783,726.4,82.4,1
81891,655688517,404.0,389.0,190.0,0,0.756,726.4,82.4,1
81892,655696517,394.0,391.0,197.0,0,0.736,726.4,82.4,1
81893,655704517,383.0,389.0,200.0,0,0.688,726.4,82.4,1
81894,655712517,369.0,384.0,201.0,0,0.663,726.4,82.4,1
81895,655720517,352.0,376.0,200.0,1,0.661,726.4,82.4,1
81896,655728519,339.0,367.0,195.0,0,0.702,726.4,82.4,1
81897,655736517,316.0,355.0,188.0,0,0.718,726.4,82.4,1
81898,655744517,298.0,341.0,179.0,0,0.73,726.4,82.4,1
81899,655752517,276.0,325.0,168.0,0,0.738,726.4,82.4,1
81900,655760517,253.0,308.0,155.0,0,0.74,726.4,82.4,1
81901,655768517,236.0,290.0,140.0,0,0.734,726.4,82.4,1
81902,655776517,213.0,272.0,124.0,0,0.715,726.4,82.4,1
81903,655784517,196.0,253.0,107.0,0,0.691,726.4,82.4,1
81904,655792517,177.0,235.0,90.0,0,0.656,726.4,82.4,1
81905,655800517,160.0,217.0,72.0,0,0.627,726.4,82.4,1
81906,655808518,146.0,200.0,55.0,0,0.585,726.4,82.4,1
81907,655816517,132.0,183.0,37.0,0,0.557,726.4,82.4,1
81908,655824517,121.0,168.0,21.0,0,0.51,726.4,82.4,1
81909,655832519,111.0,154.0,5.0,0,0.493,726.4,82.4,1
81910,655840517,106.0,143.0,-9.0,0,0.499,726.4,82.4,1
81911,655848521,100.0,132.0,-23.0,0,0.525,726.4,82.4,1
81912,655856517,97.0,124.0,-34.0,0,0.516,726.4,82.4,1
81913,655864520,93.0,116.0,-45.0,0,0.538,726.4,82.4,1
81914,655872517,93.0,111.0,-53.0,0,0.52,726.4,82.4,1
81915,655880520,94.0,107.0,-61.0,0,0.536,726.4,82.4,1
81916,655888517,96.0,104.0,-67.0,0,0.525,726.4,82.4,1
81917,655896521,98.0,103.0,-71.0,0,0.509,726.4,82.4,1
81918,655904517,99.0,102.0,-74.0,0,0.504,726.4,82.4,1
81919,655912518,103.0,102.0,-76.0,0,0.496,726.4,82.4,1
81920,655920517,106.0,103.0,-77.0,0,0.487,726.4,82.4,1
81921,655928517,108.0,104.0,-78.0,0,0.489,726.4,82.4,1
81922,655936517,108.0,105.0,-77.0,1,0.487,726.4,82.4,1
81923,655944517,112.0,107.0,-77.0,1,0.477,726.4,82.4,1
81924,655952517,110.0,108.0,-76.0,0,0.485,726.4,82.4,1
81925,655960517,112.0,109.0,-75.0,0,0.483,726.4,82.4,1
81926,655968517,112.0,109.0,-74.0,0,0.481,726.4,82.4,1
81927,655976519,110.0,110.0,-73.0,0,0.479,726.4,82.4,1
81928,655984517,110.0,110.0,-72.0,0,0.477,726.4,82.4,1
81929,655992517,110.0,110.0,-71.0,0,0.475,726.4,82.4,1
81930,656000517,110.0,110.0,-70.0,0,0.473,726.4,82.4,1
81931,656008519,110.0,110.0,-70.0,1,0.462,726.4,82.4,1
81932,656016517,104.0,108.0,-69.0,0,0.47,726.4,82.4,1
81933,656024517,106.0,108.0,-69.0,1,0.459,726.4,82.4,1
81934,656032517,101.0,106.0,-70.0,0,0.471,726.4,82.4,1
81935,656040517,100.0,105.0,-70.0,1,0.46,720.0,82.4,1
81936,656048517,101.0,104.0,-70.0,0,0.459,720.0,82.4,1
81937,656056517,97.0,102.0,-71.0,0,0.471,720.0,82.4,1
81938,656064517,95.0,100.0,-72.0,0,0.472,720.0,82.4,1
81939,656072517,95.0,99.0,-73.0,0,0.473,720.0,82.4,1
81940,656080517,94.0,98.0,-74.0,0,0.474,720.0,82.4,1
81941,656088517,94.0,97.0,-74.0,1,0.462,720.0,82.4,1
81942,656096517,92.0,96.0,-75.0,0,0.474,720.0,82.4,1
81943,656104517,97.0,96.0,-75.0,1,0.462,720.0,82.4,1
81944,656112517,93.0,95.0,-75.0,0,0.461,720.0,82.4,1
81945,656120517,93.0,95.0,-76.0,0,0.473,720.0,82.4,1
81946,656128517,96.0,95.0,-76.0,1,0.461,720.0,82.4,1
81947,656136517,95.0,95.0,-75.0,0,0.469,720.0,82.4,1
81948,656144517,97.0,96.0,-75.0,1,0.457,720.0,82.4,1
81949,656152517,96.0,96.0,-74.0,0,0.466,720.0,82.4,1
81950,656160517,96.0,96.0,-74.0,1,0.453,720.0,82.4,1
81951,656168517,97.0,96.0,-73.0,0,0.462,720.0,82.4,1
81952,656176517,100.0,97.0,-73.0,1,0.449,720.0,82.4,1
81953,656184517,99.0,97.0,-72.0,0,0.458,720.0,82.4,1
81954,656192517,101.0,98.0,-71.0,0,0.455,720.0,82.4,1
81955,656200517,100.0,99.0,-70.0,0,0.452,720.0,82.4,1
81956,656208517,106.0,100.0,-68.0,0,0.458,720.0,82.4,1
81957,656216517,109.0,103.0,-67.0,0,0.443,720.0,82.4,1
81958,656224518,113.0,105.0,-65.0,0,0.45,720.0,82.4,1
81959,656232517,124.0,110.0,-62.0,0,0.456,720.0,82.4,1
81960,656240517,138.0,117.0,-58.0,0,0.459,720.0,82.4,1
81961,656248517,155.0,126.0,-52.0,0,0.472,720.0,82.4,1
81962,656256517,172.0,137.0,-45.0,0,0.471,720.0,82.4,1
81963,656264517,196.0,151.0,-36.0,0,0.478,720.0,82.4,1
81964,656272519,220.0,168.0,-24.0,0,0.49,720.0,82.4,1
81965,656280517,248.0,187.0,-11.0,0,0.476,720.0,82.4,1
81966,656288517,277.0,209.0,5.0,0,0.535,720.0,82.4,1
81967,656296519,302.0,232.0,23.0,0,0.587,720.0,82.4,1
81968,656304518,332.0,256.0,42.0,0,0.634,720.0,82.4,1
81969,656312518,356.0,280.0,63.0,0,0.69,720.0,82.4,1
81970,656320517,375.0,303.0,84.0,0,0.732,720.0,82.4,1
81971,656328517,397.0,326.0,105.0,0,0.771,720.0,82.4,1
81972,656336517,412.0,347.0,126.0,0,0.805,720.0,82.4,1
81973,656344517,424.0,366.0,146.0,0,0.827,720.0,82.4,1
81974,656352517,431.0,381.0,164.0,0,0.835,716.8,82.4,1
81975,656360517,432.0,394.0,180.0,0,0.835,716.8,82.4,1
81976,656368517,431.0,403.0,194.0,0,0.828,716.8,82.4,1
81977,656376517,424.0,408.0,204.0,0,0.791,716.8,82.4,1
81978,656384517,420.0,411.0,213.0,0,0.784,716.8,82.4,1
81979,656392517,407.0,410.0,218.0,0,0.735,716.8,82.4,1
81980,656400517,395.0,406.0,220.0,0,0.698,716.8,82.4,1
81981,656408517,378.0,399.0,219.0,1,0.683,716.8,82.4,1
81982,656416517,359.0,390.0,215.0,0,0.715,716.8,82.4,1
81983,656424517,340.0,378.0,209.0,0,0.734,716.8,82.4,1
81984,656432517,320.0,364.0,200.0,0,0.762,716.8,82.4,1
81985,656440517,298.0,348.0,189.0,0,0.772,716.8,82.4,1
81986,656448517,278.0,331.0,175.0,0,0.786,716.8,82.4,1
81987,656456517,253.0,312.0,160.0,0,0.773,716.8,82.4,1
81988,656464517,235.0,293.0,144.0,0,0.756,716.8,82.4,1
81989,656472517,210.0,273.0,127.0,0,0.734,716.8,82.4,1
81990,656480517,192.0,253.0,108.0,0,0.712,716.8,82.4,1
81991,656488517,174.0,234.0,90.0,0,0.668,716.8,82.4,1
81992,656496517,156.0,215.0,71.0,0,0.635,716.8,82.4,1
81993,656504518,143.0,198.0,53.0,0,0.59,716.8,82.4,1
81994,656512517,127.0,181.0,35.0,0,0.553,716.8,82.4,1
81995,656520517,115.0,165.0,17.0,0,0.519,716.8,82.4,1
81996,656528517,107.0,151.0,1.0,0,0.504,716.8,82.4,1
81997,656536521,98.0,138.0,-14.0,0,0.523,716.8,82.4,1
81998,656544519,95.0,128.0,-28.0,0,0.541,716.8,82.4,1
81999,656552517,92.0,119.0,-40.0,0,0.546,716.8,82.4,1
82000,656560517,90.0,112.0,-51.0,0,0.558,716.8,82.4,1
82001,656568517,90.0,107.0,-60.0,0,0.554,716.8,82.4,1
82002,656576517,84.0,101.0,-67.0,0,0.545,716.8,82.4,1
82003,656584517,91.0,99.0,-73.0,0,0.545,716.8,82.4,1
82004,656592517,92.0,97.0,-78.0,0,0.544,716.8,82.4,1
82005,656600517,92.0,96.0,-82.0,0,0.54,716.8,82.4,1
82006,656608517,94.0,95.0,-84.0,0,0.521,716.8,82.4,1
82007,656616517,95.0,95.0,-86.0,0,0.525,716.8,82.4,1
82008,656624518,96.0,95.0,-86.0,1,0.504,716.8,82.4,1
82009,656632517,100.0,97.0,-87.0,0,0.516,716.8,82.4,1
82010,656640517,98.0,97.0,-87.0,1,0.506,716.8,82.4,1
82011,656648518,100.0,98.0,-86.0,0,0.514,716.8,82.4,1
82012,656656517,99.0,98.0,-85.0,0,0.512,716.8,82.4,1
82013,656664517,100.0,98.0,-85.0,1,0.502,718.4,82.4,1
82014,656672517,98.0,98.0,-84.0,0,0.51,718.4,82.4,1
82015,656680517,96.0,98.0,-84.0,1,0.499,718.4,82.4,1
82016,656688517,96.0,97.0,-83.0,0,0.508,718.4,82.4,1
82017,656696517,93.0,96.0,-83.0,1,0.497,718.4,82.4,1
82018,656704517,93.0,95.0,-83.0,0,0.497,718.4,82.4,1
82019,656712517,93.0,95.0,-83.0,0,0.497,718.4,82.4,1
82020,656720519,92.0,94.0,-83.0,0,0.496,718.4,82.4,1
82021,656728517,93.0,94.0,-83.0,0,0.496,718.4,82.4,1
82022,656736517,92.0,93.0,-83.0,0,0.496,718.4,82.4,1
82023,656744517,93.0,93.0,-83.0,0,0.495,718.4,82.4,1
82024,656752519,94.0,93.0,-83.0,0,0.495,718.4,82.4,1
82025,656760517,93.0,93.0,-82.0,0,0.503,718.4,82.4,1
82026,656768518,94.0,94.0,-82.0,1,0.491,718.4,82.4,1
82027,656776519,92.0,93.0,-81.0,0,0.499,718.4,82.4,1
82028,656784517,94.0,93.0,-81.0,1,0.488,718.4,82.4,1
82029,656792517,93.0,93.0,-81.0,0,0.487,718.4,82.4,1
82030,656800517,96.0,94.0,-80.0,0,0.495,718.4,82.4,1
82031,656808517,97.0,95.0,-79.0,0,0.492,718.4,82.4,1
82032,656816517,95.0,95.0,-78.0,0,0.489,718.4,82.4,1
82033,656824517,97.0,95.0,-77.0,0,0.486,718.4,82.4,1
82034,656832517,96.0,95.0,-77.0,1,0.473,718.4,82.4,1
82035,656840519,99.0,96.0,-76.0,0,0.482,718.4,82.4,1
82036,656848517,96.0,96.0,-75.0,0,0.479,718.4,82.4,1
82037,656856517,96.0,96.0,-74.0,0,0.476,718.4,82.4,1
82038,656864517,100.0,97.0,-73.0,0,0.473,718.4,82.4,1
82039,656872517,101.0,98.0,-72.0,0,0.47,718.4,82.4,1
82040,656880517,102.0,99.0,-71.0,0,0.467,718.4,82.4,1
82041,656888517,105.0,100.0,-70.0,0,0.464,718.4,82.4,1
82042,656896517,105.0,102.0,-68.0,0,0.471,718.4,82.4,1
82043,656904517,109.0,103.0,-67.0,0,0.456,718.4,82.4,1
82044,656912519,111.0,105.0,-65.0,0,0.462,718.4,82.4,1
82045,656920517,119.0,109.0,-63.0,0,0.457,718.4,82.4,1
82046,656928519,127.0,113.0,-59.0,0,0.472,718.4,82.4,1
82047,656936517,140.0,120.0,-55.0,0,0.463,718.4,82.4,1
82048,656944517,156.0,128.0,-50.0,0,0.464,718.4,82.4,1
82049,656952519,177.0,140.0,-42.0,0,0.484,718.4,82.4,1
82050,656960517,199.0,154.0,-33.0,0,0.477,718.4,82.4,1
82051,656968518,227.0,172.0,-21.0,0,0.488,718.4,82.4,1
82052,656976517,252.0,191.0,-8.0,0,0.473,721.6,82.4,1
82053,656984517,281.0,213.0,8.0,0,0.532,721.6,82.4,1
82054,656992517,310.0,237.0,26.0,0,0.586,721.6,82.4,1
82055,657000517,336.0,261.0,46.0,0,0.643,721.6,82.4,1
82056,657008519,362.0,285.0,67.0,0,0.694,721.6,82.4,1
82057,657016521,379.0,308.0,88.0,0,0.738,721.6,82.4,1
82058,657024521,399.0,330.0,109.0,0,0.777,721.6,82.4,1
82059,657032517,411.0,350.0,129.0,0,0.804,721.6,82.4,1
82060,657040517,423.0,367.0,148.0,0,0.824,721.6,82.4,1
82061,657048517,429.0,382.0,166.0,0,0.838,721.6,82.4,1
82062,657056517,428.0,393.0,181.0,0,0.828,721.6,82.4,1
82063,657064517,433.0,403.0,194.0,0,0.819,721.6,82.4,1
82064,657072517,425.0,408.0,205.0,0,0.804,721.6,82.4,1
82065,657080517,416.0,410.0,213.0,0,0.773,721.6,82.4,1
82066,657088519,407.0,409.0,217.0,0,0.723,721.6,82.4,1
82067,657096517,390.0,405.0,219.0,0,0.698,721.6,82.4,1
82068,657104517,375.0,398.0,218.0,1,0.684,721.6,82.4,1
82069,657112517,356.0,387.0,214.0,0,0.715,721.6,82.4,1
82070,657120517,340.0,376.0,207.0,0,0.746,721.6,82.4,1
82071,657128517,323.0,363.0,198.0,0,0.761,721.6,82.4,1
82072,657136519,300.0,348.0,187.0,0,0.771,721.6,82.4,1
82073,657144517,280.0,331.0,174.0,0,0.775,721.6,82.4,1
82074,657152517,255.0,313.0,160.0,0,0.765,721.6,82.4,1
82075,657160517,233.0,293.0,144.0,0,0.757,721.6,82.4,1
82076,657168517,215.0,274.0,126.0,0,0.74,715.2,83.3,1
82077,657176517,192.0,254.0,108.0,0,0.705,715.2,83.3,1
82078,657184517,174.0,235.0,90.0,0,0.668,715.2,83.3,1
82079,657192517,156.0,216.0,71.0,0,0.635,715.2,83.3,1
82080,657200521,140.0,197.0,52.0,0,0.594,715.2,83.3,1
82081,657208518,127.0,180.0,34.0,0,0.55,715.2,83.3,1
82082,657216521,112.0,164.0,16.0,0,0.515,715.2,83.3,1
82083,657224517,103.0,149.0,0.0,0,0.508,715.2,83.3,1
82084,657232517,96.0,136.0,-16.0,0,0.538,715.2,83.3,1
82085,657240519,85.0,124.0,-30.0,0,0.548,715.2,83.3,1
82086,657248518,87.0,115.0,-43.0,0,0.565,715.2,83.3,1
82087,657256519,83.0,107.0,-54.0,0,0.566,715.2,83.3,1
82088,657264518,83.0,101.0,-64.0,0,0.576,715.2,83.3,1
82089,657272517,80.0,96.0,-72.0,0,0.569,715.2,83.3,1
82090,657280517,80.0,92.0,-79.0,0,0.571,715.2,83.3,1
82091,657288517,80.0,89.0,-84.0,0,0.558,715.2,83.3,1
82092,657296517,77.0,86.0,-89.0,0,0.567,715.2,83.3,1
82093,657304517,78.0,84.0,-92.0,0,0.55,715.2,83.3,1
82094,657312517,77.0,83.0,-95.0,0,0.555,715.2,83.3,1
82095,657320517,77.0,81.0,-97.0,0,0.547,715.2,83.3,1
82096,657328517,77.0,80.0,-99.0,0,0.551,715.2,83.3,1
82097,657336517,78.0,80.0,-100.0,0,0.541,715.2,83.3,1
82098,657344517,76.0,79.0,-101.0,0,0.543,715.2,83.3,1
82099,657352517,76.0,78.0,-102.0,0,0.544,715.2,83.3,1
82100,657360517,72.0,77.0,-102.0,1,0.533,715.2,83.3,1
82101,657368517,74.0,76.0,-103.0,0,0.545,715.2,83.3,1
82102,657376519,71.0,75.0,-103.0,1,0.534,715.2,83.3,1
82103,657384517,69.0,73.0,-104.0,0,0.546,715.2,83.3,1
82104,657392517,67.0,72.0,-105.0,0,0.547,715.2,83.3,1
82105,657400517,64.0,70.0,-105.0,1,0.536,715.2,83.3,1
82106,657408517,64.0,68.0,-106.0,0,0.548,715.2,83.3,1
82107,657416517,61.0,67.0,-107.0,0,0.549,715.2,83.3,1
82108,657424517,60.0,65.0,-108.0,0,0.55,715.2,83.3,1
82109,657432517,61.0,64.0,-109.0,0,0.551,715.2,83.3,1
82110,657440517,60.0,63.0,-109.0,1,0.539,715.2,83.3,1
82111,657448517,61.0,63.0,-109.0,0,0.539,715.2,83.3,1
82112,657456517,58.0,61.0,-110.0,0,0.55,715.2,83.3,1
82113,657464517,59.0,61.0,-110.0,1,0.539,715.2,83.3,1
82114,657472517,59.0,60.0,-110.0,0,0.538,715.2,83.3,1
82115,657480517,60.0,60.0,-110.0,0,0.537,715.2,83.3,1
82116,657488517,60.0,60.0,-110.0,0,0.536,715.2,83.3,1
82117,657496517,61.0,60.0,-109.0,0,0.543,715.2,83.3,1
82118,657504519,62.0,61.0,-109.0,1,0.531,715.2,83.3,1
82119,657512517,63.0,61.0,-108.0,0,0.539,715.2,83.3,1
82120,657520517,65.0,62.0,-107.0,0,0.536,715.2,83.3,1
82121,657528517,68.0,64.0,-105.0,0,0.543,715.2,83.3,1
82122,657536517,68.0,65.0,-104.0,0,0.528,715.2,83.3,1
82123,657544517,76.0,67.0,-102.0,0,0.535,715.2,83.3,1
82124,657552519,74.0,69.0,-100.0,0,0.53,715.2,83.3,1
82125,657560517,76.0,71.0,-98.0,0,0.526,715.2,83.3,1
82126,657568517,79.0,73.0,-95.0,0,0.531,715.2,83.3,1
82127,657576521,77.0,74.0,-93.0,0,0.514,715.2,83.3,1
82128,657584517,80.0,75.0,-91.0,0,0.509,715.2,83.3,1
82129,657592517,82.0,77.0,-89.0,0,0.505,715.2,83.3,1
82130,657600517,84.0,79.0,-87.0,0,0.5,715.2,83.3,1
82131,657608517,90.0,81.0,-85.0,0,0.495,715.2,83.3,1
82132,657616517,93.0,84.0,-82.0,0,0.5,715.2,83.3,1
82133,657624517,101.0,88.0,-79.0,0,0.493,715.2,83.3,1
82134,657632517,107.0,93.0,-75.0,0,0.496,715.2,83.3,1
82135,657640517,118.0,99.0,-70.0,0,0.497,715.2,83.3,1
82136,657648517,135.0,108.0,-64.0,0,0.496,715.2,83.3,1
82137,657656517,149.0,118.0,-57.0,0,0.493,715.2,83.3,1
82138,657664518,170.0,130.0,-49.0,0,0.488,715.2,83.3,1
82139,657672517,193.0,146.0,-38.0,0,0.5,715.2,83.3,1
82140,657680517,219.0,163.0,-25.0,0,0.496,715.2,83.3,1
82141,657688517,249.0,184.0,-10.0,0,0.49,715.2,83.3,1
82142,657696517,276.0,206.0,6.0,0,0.529,715.2,83.3,1
82143,657704517,307.0,231.0,25.0,0,0.591,715.2,83.3,1
82144,657712517,332.0,255.0,46.0,0,0.648,715.2,83.3,1
82145,657720522,355.0,279.0,67.0,0,0.692,715.2,83.3,1
82146,657728517,380.0,304.0,89.0,0,0.742,715.2,83.3,1
82147,657736517,396.0,326.0,110.0,0,0.774,715.2,83.3,1
82148,657744521,408.0,346.0,131.0,0,0.808,715.2,83.3,1
82149,657752517,416.0,363.0,151.0,0,0.828,715.2,83.3,1
82150,657760517,420.0,377.0,168.0,0,0.826,715.2,83.3,1
82151,657768517,421.0,388.0,183.0,0,0.823,715.2,83.3,1
82152,657776517,417.0,395.0,195.0,0,0.802,715.2,83.3,1
82153,657784517,410.0,398.0,205.0,0,0.786,715.2,83.3,1
82154,657792517,400.0,399.0,211.0,0,0.741,715.2,83.3,1
82155,657800517,388.0,396.0,215.0,0,0.717,715.2,83.3,1
82156,657808517,373.0,391.0,215.0,1,0.669,715.2,83.3,1
82157,657816517,352.0,381.0,212.0,0,0.699,715.2,83.3,1
82158,657824518,336.0,370.0,207.0,0,0.718,715.2,83.3,1
82159,657832517,316.0,357.0,199.0,0,0.745,715.2,83.3,1
82160,657840521,295.0,342.0,188.0,0,0.768,715.2,83.3,1
82161,657848517,272.0,325.0,176.0,0,0.763,715.2,83.3,1
82162,657856517,248.0,306.0,161.0,0,0.772,708.8,84.3,1
82163,657864517,225.0,287.0,145.0,0,0.755,708.8,84.3,1
82164,657872517,203.0,266.0,128.0,0,0.734,708.8,84.3,1
82165,657880517,182.0,246.0,109.0,0,0.714,708.8,84.3,1
82166,657888517,164.0,226.0,90.0,0,0.676,708.8,84.3,1
82167,657896517,144.0,206.0,71.0,0,0.638,708.8,84.3,1
82168,657904517,127.0,187.0,52.0,0,0.599,708.8,84.3,1
82169,657912519,114.0,169.0,33.0,0,0.561,708.8,84.3,1
82170,657920517,103.0,153.0,15.0,0,0.52,708.8,84.3,1
82171,657928517,96.0,139.0,-2.0,0,0.504,708.8,84.3,1
82172,657936517,86.0,126.0,-17.0,0,0.513,708.8,84.3,1
82173,657944517,83.0,116.0,-31.0,0,0.529,708.8,84.3,1
82174,657952517,79.0,107.0,-44.0,0,0.545,708.8,84.3,1
82175,657960517,79.0,100.0,-54.0,0,0.532,708.8,84.3,1
82176,657968517,80.0,95.0,-63.0,0,0.539,708.8,84.3,1
82177,657976517,80.0,92.0,-70.0,0,0.53,708.8,84.3,1
82178,657984517,84.0,90.0,-76.0,0,0.53,708.8,84.3,1
82179,657992518,84.0,88.0,-80.0,0,0.514,708.8,84.3,1
82180,658000518,88.0,88.0,-83.0,0,0.509,708.8,84.3,1
82181,658008517,92.0,89.0,-84.0,0,0.489,708.8,84.3,1
82182,658016517,92.0,90.0,-85.0,0,0.49,708.8,84.3,1
82183,658024519,97.0,92.0,-85.0,1,0.48,708.8,84.3,1
82184,658032518,101.0,94.0,-84.0,0,0.488,708.8,84.3,1
82185,658040517,103.0,96.0,-83.0,0,0.486,708.8,84.3,1
82186,658048517,106.0,98.0,-81.0,0,0.492,708.8,84.3,1
82187,658056517,105.0,100.0,-79.0,0,0.488,708.8,84.3,1
82188,658064517,107.0,102.0,-77.0,0,0.484,708.8,84.3,1
82189,658072517,106.0,103.0,-75.0,0,0.48,708.8,84.3,1
82190,658080517,105.0,103.0,-73.0,0,0.476,708.8,84.3,1
82191,658088517,108.0,104.0,-72.0,0,0.463,708.8,84.3,1
82192,658096517,102.0,104.0,-71.0,0,0.461,708.8,84.3,1
82193,658104517,105.0,104.0,-70.0,0,0.459,708.8,84.3,1
82194,658112519,102.0,104.0,-69.0,0,0.457,708.8,84.3,1
82195,658120517,102.0,103.0,-69.0,1,0.446,708.8,84.3,1
82196,658128519,105.0,104.0,-68.0,0,0.454,708.8,84.3,1
82197,658136518,102.0,103.0,-67.0,0,0.452,708.8,84.3,1
82198,658144519,104.0,103.0,-67.0,1,0.442,708.8,84.3,1
82199,658152517,101.0,103.0,-67.0,0,0.441,708.8,84.3,1
82200,658160517,100.0,102.0,-67.0,0,0.441,708.8,84.3,1
82201,658168517,97.0,101.0,-67.0,0,0.44,708.8,84.3,1
82202,658176520,94.0,99.0,-67.0,0,0.439,708.8,84.3,1
82203,658184517,93.0,98.0,-68.0,0,0.451,708.8,84.3,1
82204,658192517,96.0,97.0,-68.0,1,0.44,708.8,84.3,1
82205,658200517,95.0,97.0,-68.0,0,0.439,708.8,84.3,1
82206,658208519,99.0,97.0,-68.0,0,0.438,708.8,84.3,1
82207,658216517,96.0,97.0,-68.0,0,0.437,708.8,84.3,1
82208,658224517,98.0,97.0,-68.0,0,0.436,712.0,84.3,1
82209,658232517,100.0,98.0,-68.0,0,0.435,712.0,84.3,1
82210,658240517,97.0,98.0,-67.0,0,0.443,712.0,84.3,1
82211,658248517,100.0,98.0,-67.0,1,0.431,712.0,84.3,1
82212,658256517,100.0,99.0,-66.0,0,0.439,712.0,84.3,1
82213,658264519,98.0,99.0,-65.0,0,0.436,712.0,84.3,1
82214,658272517,100.0,99.0,-65.0,1,0.424,712.0,84.3,1
82215,658280517,103.0,100.0,-64.0,0,0.432,712.0,84.3,1
82216,658288517,102.0,100.0,-63.0,0,0.429,712.0,84.3,1
82217,658296519,103.0,101.0,-62.0,0,0.426,712.0,84.3,1
82218,658304519,107.0,102.0,-61.0,0,0.423,712.0,84.3,1
82219,658312517,109.0,104.0,-60.0,0,0.42,712.0,84.3,1
82220,658320519,112.0,106.0,-58.0,0,0.426,712.0,84.3,1
82221,658328519,123.0,110.0,-55.0,0,0.431,712.0,84.3,1
82222,658336517,134.0,116.0,-52.0,0,0.424,712.0,84.3,1
82223,658344517,148.0,124.0,-47.0,0,0.437,712.0,84.3,1
82224,658352521,165.0,134.0,-41.0,0,0.437,712.0,84.3,1
82225,658360517,187.0,147.0,-33.0,0,0.446,712.0,84.3,1
82226,658368517,214.0,163.0,-22.0,0,0.46,712.0,84.3,1
82227,658376517,238.0,181.0,-9.0,0,0.474,712.0,84.3,1
82228,658384521,266.0,202.0,5.0,0,0.511,712.0,84.3,1
82229,658392517,292.0,224.0,22.0,0,0.572,712.0,84.3,1
82230,658400518,316.0,246.0,40.0,0,0.616,712.0,84.3,1
82231,658408517,344.0,270.0,60.0,0,0.671,712.0,84.3,1
82232,658416518,364.0,293.0,80.0,0,0.711,712.0,84.3,1
82233,658424517,383.0,315.0,101.0,0,0.755,712.0,84.3,1
82234,658432517,396.0,334.0,121.0,0,0.782,712.0,84.3,1
82235,658440517,405.0,351.0,139.0,0,0.794,712.0,84.3,1
82236,658448517,415.0,367.0,157.0,0,0.816,712.0,84.3,1
82237,658456517,414.0,378.0,172.0,0,0.807,712.0,84.3,1
82238,658464518,412.0,386.0,185.0,0,0.799,712.0,84.3,1
82239,658472517,405.0,391.0,195.0,0,0.774,712.0,84.3,1
82240,658480517,396.0,392.0,202.0,0,0.743,712.0,84.3,1
82241,658488517,383.0,390.0,206.0,0,0.708,712.0,84.3,1
82242,658496517,373.0,386.0,208.0,0,0.684,712.0,84.3,1
82243,658504517,357.0,379.0,206.0,1,0.681,712.0,84.3,1
82244,658512517,340.0,369.0,202.0,0,0.699,712.0,84.3,1
82245,658520517,320.0,357.0,195.0,0,0.727,712.0,84.3,1
82246,658528517,304.0,344.0,187.0,0,0.729,712.0,84.3,1
82247,658536517,282.0,329.0,176.0,0,0.749,710.4,84.3,1
82248,658544517,261.0,313.0,163.0,0,0.752,710.4,84.3,1
82249,658552517,240.0,295.0,148.0,0,0.749,710.4,84.3,1
82250,658560517,220.0,277.0,133.0,0,0.723,704.0,85.2,1
82251,658568517,201.0,259.0,116.0,0,0.71,704.0,85.2,1
82252,658576517,180.0,239.0,99.0,0,0.677,704.0,85.2,1
82253,658584517,165.0,221.0,81.0,0,0.649,704.0,85.2,1
82254,658592517,149.0,204.0,64.0,0,0.607,704.0,85.2,1
82255,658600519,137.0,188.0,46.0,0,0.579,704.0,85.2,1
82256,658608519,127.0,173.0,30.0,0,0.531,704.0,85.2,1
82257,658616517,117.0,159.0,14.0,0,0.502,704.0,85.2,1
82258,658624517,113.0,148.0,0.0,0,0.471,704.0,85.2,1
82259,658632517,107.0,138.0,-13.0,0,0.484,704.0,85.2,1
82260,658640517,101.0,129.0,-25.0,0,0.496,704.0,85.2,1
82261,658648517,104.0,123.0,-35.0,0,0.493,704.0,85.2,1
82262,658656517,102.0,118.0,-43.0,0,0.486,704.0,85.2,1
82263,658664517,105.0,115.0,-50.0,0,0.489,704.0,85.2,1
82264,658672517,108.0,113.0,-55.0,0,0.476,704.0,85.2,1
82265,658680517,108.0,112.0,-59.0,0,0.472,704.0,85.2,1
82266,658688517,113.0,112.0,-62.0,0,0.467,704.0,85.2,1
82267,658696517,115.0,113.0,-63.0,0,0.448,704.0,85.2,1
82268,658704517,120.0,115.0,-64.0,0,0.45,704.0,85.2,1
82269,658712517,120.0,116.0,-64.0,1,0.439,704.0,85.2,1
82270,658720517,122.0,117.0,-63.0,0,0.448,704.0,85.2,1
82271,658728517,124.0,119.0,-62.0,0,0.446,704.0,85.2,1
82272,658736517,124.0,120.0,-61.0,0,0.444,704.0,85.2,1
82273,658744517,124.0,121.0,-60.0,0,0.442,704.0,85.2,1
82274,658752517,121.0,121.0,-59.0,0,0.44,704.0,85.2,1
82275,658760517,121.0,121.0,-58.0,0,0.439,704.0,85.2,1
82276,658768517,121.0,121.0,-57.0,0,0.437,704.0,85.2,1
82277,658776517,118.0,120.0,-57.0,1,0.427,704.0,85.2,1
82278,658784517,117.0,120.0,-57.0,0,0.427,704.0,85.2,1
82279,658792517,117.0,119.0,-57.0,0,0.427,704.0,85.2,1
82280,658800517,116.0,118.0,-57.0,0,0.427,704.0,85.2,1
82281,658808517,115.0,117.0,-57.0,0,0.427,704.0,85.2,1
82282,658816517,112.0,116.0,-57.0,0,0.427,704.0,85.2,1
82283,658824517,111.0,115.0,-58.0,0,0.439,704.0,85.2,1
82284,658832517,111.0,114.0,-58.0,1,0.428,704.0,85.2,1
82285,658840517,108.0,112.0,-59.0,0,0.44,704.0,85.2,1
82286,658848517,109.0,112.0,-60.0,0,0.442,702.4,85.2,1
82287,658856518,108.0,111.0,-60.0,1,0.431,702.4,85.2,1
82288,658864517,109.0,110.0,-61.0,0,0.443,702.4,85.2,1
82289,658872517,108.0,110.0,-61.0,1,0.432,702.4,85.2,1
82290,658880517,106.0,109.0,-61.0,0,0.431,702.4,85.2,1
82291,658888519,108.0,109.0,-62.0,0,0.443,702.4,85.2,1
82292,658896517,105.0,108.0,-62.0,1,0.431,702.4,85.2,1
82293,658904517,108.0,108.0,-62.0,0,0.43,702.4,85.2,1
82294,658912517,106.0,107.0,-62.0,0,0.429,702.4,85.2,1
82295,658920519,106.0,107.0,-62.0,0,0.428,702.4,85.2,1
82296,658928517,107.0,107.0,-62.0,0,0.427,702.4,85.2,1
82297,658936517,104.0,106.0,-62.0,0,0.426,702.4,85.2,1
82298,658944517,105.0,106.0,-62.0,0,0.425,702.4,85.2,1
82299,658952517,107.0,106.0,-62.0,0,0.424,702.4,85.2,1
82300,658960517,108.0,107.0,-61.0,0,0.432,702.4,85.2,1
82301,658968517,110.0,107.0,-61.0,1,0.42,702.4,85.2,1
82302,658976522,116.0,110.0,-60.0,0,0.428,702.4,85.2,1
82303,658984520,124.0,113.0,-58.0,0,0.435,702.4,85.2,1
82304,658992517,137.0,119.0,-55.0,0,0.439,702.4,85.2,1
82305,659000517,152.0,127.0,-50.0,0,0.452,702.4,85.2,1
82306,659008517,172.0,138.0,-43.0,0,0.462,702.4,85.2,1
82307,659016519,192.0,151.0,-35.0,0,0.457,702.4,85.2,1
82308,659024517,217.0,167.0,-25.0,0,0.46,702.4,85.2,1
82309,659032517,243.0,185.0,-12.0,0,0.468,702.4,85.2,1
82310,659040517,272.0,206.0,3.0,0,0.51,702.4,85.2,1
82311,659048518,299.0,229.0,20.0,0,0.562,702.4,85.2,1
82312,659056517,322.0,251.0,39.0,0,0.618,702.4,85.2,1
82313,659064517,347.0,275.0,58.0,0,0.659,702.4,85.2,1
82314,659072517,368.0,297.0,79.0,0,0.715,702.4,85.2,1
82315,659080517,383.0,318.0,99.0,0,0.748,702.4,85.2,1
82316,659088521,400.0,338.0,118.0,0,0.774,702.4,85.2,1
82317,659096517,407.0,355.0,137.0,0,0.803,702.4,85.2,1
82318,659104522,412.0,369.0,154.0,0,0.81,702.4,85.2,1
82319,659112517,415.0,380.0,169.0,0,0.809,702.4,85.2,1
82320,659120517,412.0,388.0,181.0,0,0.79,702.4,85.2,1
82321,659128517,407.0,392.0,191.0,0,0.776,702.4,85.2,1
82322,659136518,400.0,394.0,198.0,0,0.744,702.4,85.2,1
82323,659144517,391.0,393.0,202.0,0,0.709,702.4,85.2,1
82324,659152519,376.0,389.0,204.0,0,0.685,702.4,85.2,1
82325,659160519,363.0,383.0,203.0,1,0.671,700.8,85.2,1
82326,659168517,348.0,374.0,199.0,0,0.701,700.8,85.2,1
82327,659176517,329.0,363.0,193.0,0,0.718,700.8,85.2,1
82328,659184517,309.0,350.0,185.0,0,0.733,700.8,85.2,1
82329,659192517,290.0,336.0,175.0,0,0.743,700.8,85.2,1
82330,659200517,268.0,319.0,162.0,0,0.758,700.8,85.2,1
82331,659208517,244.0,301.0,148.0,0,0.746,700.8,85.2,1
82332,659216519,223.0,282.0,132.0,0,0.737,700.8,85.2,1
82333,659224517,204.0,263.0,115.0,0,0.714,700.8,85.2,1
82334,659232517,185.0,244.0,98.0,0,0.681,700.8,85.2,1
82335,659240517,168.0,226.0,80.0,0,0.652,694.4,86.2,1
82336,659248517,154.0,208.0,62.0,0,0.614,694.4,86.2,1
82337,659256517,140.0,192.0,45.0,0,0.572,694.4,86.2,1
82338,659264517,127.0,176.0,28.0,0,0.538,694.4,86.2,1
82339,659272517,119.0,162.0,12.0,0,0.499,694.4,86.2,1
82340,659280517,107.0,149.0,-3.0,0,0.491,694.4,86.2,1
82341,659288517,101.0,137.0,-17.0,0,0.507,694.4,86.2,1
82342,659296517,95.0,127.0,-30.0,0,0.522,694.4,86.2,1
82343,659304517,94.0,119.0,-41.0,0,0.523,694.4,86.2,1
82344,659312517,93.0,113.0,-51.0,0,0.532,694.4,86.2,1
82345,659320519,92.0,108.0,-59.0,0,0.525,694.4,86.2,1
82346,659328517,95.0,105.0,-66.0,0,0.528,694.4,86.2,1
82347,659336517,95.0,102.0,-71.0,0,0.515,694.4,86.2,1
82348,659344517,99.0,101.0,-75.0,0,0.511,694.4,86.2,1
82349,659352518,100.0,101.0,-78.0,0,0.506,694.4,86.2,1
82350,659360517,100.0,101.0,-79.0,0,0.486,694.4,86.2,1
82351,659368517,100.0,101.0,-81.0,0,0.501,694.4,86.2,1
82352,659376517,99.0,100.0,-81.0,1,0.479,694.4,86.2,1
82353,659384517,103.0,101.0,-82.0,0,0.492,694.4,86.2,1
82354,659392517,101.0,101.0,-82.0,1,0.481,694.4,86.2,1
82355,659400517,99.0,100.0,-82.0,0,0.481,694.4,86.2,1
82356,659408517,101.0,101.0,-81.0,0,0.489,694.4,86.2,1
82357,659416517,100.0,100.0,-81.0,1,0.479,694.4,86.2,1
82358,659424517,101.0,101.0,-81.0,0,0.479,694.4,86.2,1
82359,659432517,100.0,100.0,-80.0,0,0.487,694.4,86.2,1
82360,659440519,98.0,100.0,-80.0,1,0.477,694.4,86.2,1
82361,659448517,99.0,100.0,-80.0,0,0.477,694.4,86.2,1
82362,659456517,93.0,98.0,-80.0,0,0.477,694.4,86.2,1
82363,659464517,95.0,97.0,-80.0,0,0.476,694.4,86.2,1
82364,659472517,92.0,96.0,-81.0,0,0.489,691.2,86.2,1
82365,659480517,91.0,95.0,-81.0,1,0.478,691.2,86.2,1
82366,659488517,89.0,93.0,-81.0,0,0.478,691.2,86.2,1
82367,659496519,86.0,92.0,-82.0,0,0.49,691.2,86.2,1
82368,659504517,84.0,90.0,-83.0,0,0.492,691.2,86.2,1
82369,659512517,84.0,88.0,-84.0,0,0.493,691.2,86.2,1
82370,659520519,83.0,87.0,-85.0,0,0.495,691.2,86.2,1
82371,659528518,85.0,87.0,-85.0,1,0.484,691.2,86.2,1
82372,659536517,84.0,86.0,-86.0,0,0.496,691.2,86.2,1
82373,659544519,86.0,86.0,-86.0,1,0.485,691.2,86.2,1
82374,659552517,87.0,86.0,-86.0,0,0.484,691.2,86.2,1
82375,659560517,90.0,87.0,-85.0,0,0.492,691.2,86.2,1
82376,659568517,92.0,88.0,-84.0,0,0.489,691.2,86.2,1
82377,659576517,92.0,89.0,-83.0,0,0.486,691.2,86.2,1
82378,659584517,94.0,90.0,-82.0,0,0.483,691.2,86.2,1
82379,659592517,95.0,91.0,-81.0,0,0.48,691.2,86.2,1
82380,659600517,93.0,92.0,-80.0,0,0.477,691.2,86.2,1
82381,659608517,97.0,93.0,-78.0,0,0.484,691.2,86.2,1
82382,659616518,97.0,94.0,-77.0,0,0.47,691.2,86.2,1
82383,659624517,97.0,95.0,-76.0,0,0.467,691.2,86.2,1
82384,659632517,98.0,96.0,-74.0,0,0.473,691.2,86.2,1
82385,659640517,101.0,97.0,-73.0,0,0.459,691.2,86.2,1
82386,659648517,105.0,99.0,-71.0,0,0.465,691.2,86.2,1
82387,659656517,108.0,101.0,-69.0,0,0.46,691.2,86.2,1
82388,659664517,117.0,105.0,-66.0,0,0.465,691.2,86.2,1
82389,659672519,124.0,110.0,-63.0,0,0.458,691.2,86.2,1
82390,659680519,137.0,116.0,-59.0,0,0.461,691.2,86.2,1
