seq,t_us,raw,avg,filtered,candidate,detector_score,expected_rr_ms,hr_bpm,flags
4133453,33068180723,0.0,0.0,-207.0,0,0.484,776.0,75.8,19
4133454,33068188723,0.0,0.0,-206.0,0,0.478,776.0,75.8,19
4133455,33068196723,0.0,0.0,-205.0,0,0.476,776.0,75.8,19
4133456,33068204724,0.0,0.0,-204.0,0,0.475,776.0,75.8,19
4133457,33068212724,0.0,0.0,-202.0,0,0.478,776.0,75.8,19
4133458,33068220723,0.0,0.0,-201.0,0,0.471,776.0,75.8,19
4133459,33068228723,4.0,1.0,-199.0,0,0.475,776.0,75.8,17
4133460,33068236726,7.0,2.0,-197.0,0,0.473,776.0,75.8,17
4133461,33068244725,11.0,5.0,-195.0,0,0.471,776.0,75.8,17
4133462,33068252726,13.0,7.0,-193.0,0,0.469,776.0,75.8,17
4133463,33068260724,19.0,10.0,-189.0,0,0.477,776.0,75.8,17
4133464,33068268723,22.0,13.0,-186.0,0,0.468,776.0,75.8,17
4133465,33068276723,29.0,17.0,-182.0,0,0.471,776.0,75.8,17
4133466,33068284724,32.0,20.0,-178.0,0,0.467,776.0,75.8,17
4133467,33068292723,37.0,24.0,-174.0,0,0.464,776.0,75.8,17
4133468,33068300724,46.0,30.0,-169.0,0,0.465,776.0,75.8,17
4133469,33068308723,54.0,36.0,-163.0,0,0.466,776.0,75.8,17
4133470,33068316723,60.0,41.0,-157.0,0,0.461,776.0,75.8,17
4133471,33068324723,66.0,47.0,-151.0,0,0.456,776.0,75.8,17
4133472,33068332724,73.0,54.0,-145.0,0,0.451,776.0,75.8,17
4133473,33068340723,82.0,60.0,-138.0,0,0.451,776.0,75.8,17
4133474,33068348726,81.0,65.0,-131.0,0,0.445,776.0,75.8,17
4133475,33068356723,89.0,71.0,-125.0,0,0.434,776.0,75.8,17
4133476,33068364723,96.0,77.0,-118.0,0,0.434,776.0,75.8,17
4133477,33068372723,104.0,84.0,-112.0,0,0.423,776.0,75.8,17
4133478,33068380726,112.0,91.0,-105.0,0,0.423,776.0,75.8,17
4133479,33068388726,110.0,95.0,-98.0,0,0.417,776.0,75.8,17
4133480,33068396726,120.0,101.0,-92.0,0,0.407,776.0,75.8,17
4133481,33068404723,122.0,106.0,-86.0,0,0.402,776.0,75.8,17
4133482,33068412726,126.0,111.0,-80.0,0,0.397,776.0,75.8,17
4133483,33068420728,127.0,115.0,-74.0,0,0.392,776.0,75.8,17
4133484,33068428723,127.0,118.0,-69.0,0,0.383,776.0,75.8,17
4133485,33068436725,140.0,123.0,-64.0,0,0.379,776.0,75.8,17
4133486,33068444723,148.0,129.0,-59.0,0,0.375,776.0,75.8,17
4133487,33068452724,160.0,137.0,-53.0,0,0.376,776.0,75.8,17
4133488,33068460724,174.0,146.0,-46.0,0,0.377,776.0,75.8,17
4133489,33068468727,198.0,158.0,-37.0,0,0.382,776.0,75.8,17
4133490,33068476725,230.0,176.0,-26.0,0,0.385,776.0,75.8,17
4133491,33068484723,270.0,199.0,-12.0,0,0.393,776.0,75.8,17
4133492,33068492723,316.0,227.0,7.0,0,0.436,776.0,75.8,17
4133493,33068500723,369.0,261.0,29.0,0,0.47,776.0,75.8,17
4133494,33068508723,422.0,300.0,57.0,0,0.523,776.0,75.8,17
4133495,33068516722,477.0,343.0,88.0,0,0.564,776.0,75.8,17
4133496,33068524724,539.0,391.0,123.0,0,0.611,776.0,75.8,17
4133497,33068532722,589.0,439.0,162.0,0,0.659,776.0,75.8,17
4133498,33068540723,639.0,487.0,203.0,0,0.7,776.0,75.8,17
4133499,33068548726,691.0,537.0,246.0,0,0.741,776.0,75.8,17
4133500,33068556724,732.0,584.0,289.0,0,0.772,776.0,75.8,17
4133501,33068564722,767.0,628.0,331.0,0,0.796,776.0,75.8,17
4133502,33068572723,794.0,669.0,373.0,0,0.82,776.0,75.8,17
4133503,33068580725,811.0,703.0,411.0,0,0.825,776.0,75.8,17
4133504,33068588723,818.0,731.0,445.0,0,0.823,776.0,75.8,17
4133505,33068596726,810.0,750.0,474.0,0,0.811,776.0,75.8,17
4133506,33068604723,800.0,762.0,497.0,0,0.788,776.0,75.8,17
4133507,33068612723,776.0,766.0,513.0,0,0.754,776.0,75.8,17
4133508,33068620724,745.0,761.0,523.0,0,0.722,776.0,75.8,17
4133509,33068628726,714.0,749.0,525.0,0,0.678,776.0,75.8,17
4133510,33068636723,679.0,732.0,521.0,1,0.685,776.0,75.8,17
4133511,33068644727,636.0,709.0,510.0,0,0.718,776.0,75.8,17
4133512,33068652726,598.0,682.0,494.0,0,0.738,776.0,75.8,17
4133513,33068660725,555.0,651.0,473.0,0,0.754,776.0,75.8,17
4133514,33068668723,511.0,617.0,448.0,0,0.761,776.0,75.8,17
4133515,33068676723,466.0,581.0,418.0,0,0.768,776.0,75.8,17
4133516,33068684723,422.0,542.0,386.0,0,0.756,776.0,75.8,17
4133517,33068692722,369.0,500.0,350.0,0,0.747,776.0,75.8,17
4133518,33068700723,326.0,458.0,312.0,0,0.726,776.0,75.8,17
4133519,33068708723,283.0,416.0,272.0,0,0.701,776.0,75.8,17
4133520,33068716723,236.0,372.0,231.0,0,0.67,776.0,75.8,17
4133521,33068724727,199.0,330.0,190.0,0,0.635,776.0,75.8,17
4133522,33068732725,162.0,289.0,149.0,0,0.6,776.0,75.8,17
4133523,33068740723,127.0,250.0,108.0,0,0.566,776.0,75.8,17
4133524,33068748723,97.0,213.0,68.0,0,0.531,776.0,75.8,17
4133525,33068756726,69.0,178.0,30.0,0,0.497,776.0,75.8,17
4133526,33068764723,46.0,146.0,-6.0,0,0.515,776.0,75.8,17
4133527,33068772725,22.0,116.0,-40.0,0,0.534,776.0,75.8,17
4133528,33068780724,10.0,90.0,-72.0,0,0.551,776.0,75.8,17
4133529,33068788723,0.0,68.0,-100.0,0,0.556,776.0,75.8,19
4133530,33068796723,0.0,52.0,-125.0,0,0.562,776.0,75.8,19
4133531,33068804723,0.0,39.0,-146.0,0,0.558,776.0,75.8,19
4133532,33068812723,0.0,30.0,-163.0,0,0.55,776.0,75.8,19
4133533,33068820723,0.0,23.0,-177.0,0,0.545,776.0,75.8,19
4133534,33068828723,0.0,17.0,-188.0,0,0.537,776.0,75.8,19
4133535,33068836723,0.0,13.0,-197.0,0,0.532,776.0,75.8,19
4133536,33068844725,0.0,10.0,-203.0,0,0.52,776.0,75.8,19
4133537,33068852723,0.0,7.0,-208.0,0,0.518,776.0,75.8,19
4133538,33068860723,0.0,6.0,-212.0,0,0.515,776.0,75.8,19
4133539,33068868723,0.0,4.0,-215.0,0,0.512,776.0,75.8,19
4133540,33068876727,0.0,3.0,-216.0,0,0.502,776.0,75.8,19
4133541,33068884724,0.0,2.0,-217.0,0,0.501,776.0,75.8,19
4133542,33068892723,0.0,2.0,-218.0,0,0.501,776.0,75.8,19
4133543,33068900723,0.0,1.0,-218.0,1,0.495,776.0,75.8,19
4133544,33068908723,0.0,1.0,-218.0,0,0.494,776.0,75.8,19
4133545,33068916723,0.0,1.0,-217.0,0,0.497,776.0,75.8,19
4133546,33068924723,0.0,1.0,-217.0,1,0.491,776.0,75.8,19
4133547,33068932723,0.0,0.0,-216.0,0,0.494,776.0,75.8,19
4133548,33068940723,0.0,0.0,-215.0,0,0.492,776.0,75.8,19
4133549,33068948723,0.0,0.0,-214.0,0,0.49,776.0,75.8,19
4133550,33068956726,0.0,0.0,-212.0,0,0.493,776.0,75.8,19
4133551,33068964723,0.0,0.0,-211.0,0,0.486,776.0,75.8,19
4133552,33068972723,0.0,0.0,-210.0,0,0.484,776.0,75.8,19
4133553,33068980723,1.0,0.0,-209.0,0,0.482,776.0,75.8,17
4133554,33068988723,3.0,1.0,-207.0,0,0.485,776.0,75.8,17
4133555,33068996724,0.0,1.0,-206.0,0,0.479,776.0,75.8,19
4133556,33069004726,3.0,1.0,-204.0,0,0.482,776.0,75.8,17
4133557,33069012723,7.0,3.0,-202.0,0,0.48,776.0,75.8,17
4133558,33069020727,9.0,4.0,-200.0,0,0.478,776.0,75.8,17
4133559,33069028727,14.0,7.0,-197.0,0,0.48,776.0,75.8,17
4133560,33069036723,16.0,9.0,-195.0,0,0.473,776.0,75.8,17
4133561,33069044724,20.0,12.0,-191.0,0,0.481,776.0,75.8,17
4133562,33069052723,23.0,14.0,-188.0,0,0.472,776.0,75.8,17
4133563,33069060723,26.0,17.0,-185.0,0,0.47,776.0,75.8,17
4133564,33069068727,33.0,21.0,-181.0,0,0.472,776.0,75.8,17
4133565,33069076726,40.0,26.0,-176.0,0,0.473,776.0,75.8,17
4133566,33069084727,45.0,30.0,-171.0,0,0.469,776.0,75.8,17
4133567,33069092723,50.0,35.0,-166.0,0,0.465,776.0,75.8,17
4133568,33069100723,60.0,41.0,-160.0,0,0.465,776.0,75.8,17
4133569,33069108727,64.0,47.0,-155.0,0,0.455,776.0,75.8,17
4133570,33069116723,73.0,53.0,-148.0,0,0.461,776.0,75.8,17
4133571,33069124724,75.0,58.0,-142.0,0,0.45,776.0,75.8,17
4133572,33069132723,81.0,64.0,-136.0,0,0.445,776.0,75.8,17
4133573,33069140726,86.0,69.0,-130.0,0,0.44,776.0,75.8,17
4133574,33069148727,89.0,74.0,-124.0,0,0.435,776.0,75.8,17
4133575,33069156723,95.0,79.0,-118.0,0,0.43,776.0,75.8,17
4133576,33069164723,98.0,84.0,-112.0,0,0.425,776.0,75.8,17
4133577,33069172723,105.0,89.0,-106.0,0,0.42,776.0,75.8,17
4133578,33069180724,112.0,94.0,-100.0,0,0.415,776.0,75.8,17
4133579,33069188724,112.0,99.0,-95.0,0,0.406,776.0,75.8,17
4133580,33069196727,114.0,102.0,-89.0,0,0.407,776.0,75.8,17
4133581,33069204723,116.0,106.0,-85.0,0,0.392,776.0,75.8,17
4133582,33069212723,124.0,110.0,-80.0,0,0.394,776.0,75.8,17
4133583,33069220727,133.0,116.0,-75.0,0,0.39,776.0,75.8,17
4133584,33069228728,141.0,122.0,-69.0,0,0.391,776.0,75.8,17
4133585,33069236723,151.0,129.0,-63.0,0,0.386,776.0,75.8,17
4133586,33069244723,172.0,139.0,-56.0,0,0.387,776.0,75.8,17
4133587,33069252727,197.0,153.0,-46.0,0,0.397,776.0,75.8,17
4133588,33069260724,226.0,171.0,-35.0,0,0.394,776.0,75.8,17
4133589,33069268728,265.0,194.0,-20.0,0,0.407,776.0,75.8,17
4133590,33069276723,315.0,223.0,-1.0,0,0.428,776.0,75.8,17
4133591,33069284723,361.0,257.0,22.0,0,0.468,776.0,75.8,17
4133592,33069292726,419.0,296.0,49.0,0,0.51,776.0,75.8,17
4133593,33069300723,473.0,339.0,81.0,0,0.56,776.0,75.8,17
4133594,33069308723,524.0,384.0,116.0,0,0.603,776.0,75.8,17
4133595,33069316724,572.0,429.0,153.0,0,0.642,776.0,75.8,17
4133596,33069324724,615.0,474.0,192.0,0,0.683,776.0,75.8,17
4133597,33069332726,652.0,517.0,232.0,0,0.719,776.0,75.8,17
4133598,33069340726,687.0,559.0,271.0,0,0.745,776.0,75.8,17
4133599,33069348723,712.0,596.0,309.0,0,0.768,776.0,75.8,17
4133600,33069356723,731.0,629.0,345.0,0,0.782,776.0,75.8,17
4133601,33069364723,735.0,654.0,377.0,0,0.783,776.0,75.8,17
4133602,33069372723,737.0,674.0,405.0,0,0.778,776.0,75.8,17
4133603,33069380726,727.0,687.0,427.0,0,0.757,776.0,75.8,17
4133604,33069388723,714.0,694.0,444.0,0,0.736,776.0,75.8,17
4133605,33069396725,689.0,693.0,455.0,0,0.705,776.0,75.8,17
4133606,33069404723,661.0,685.0,460.0,0,0.672,776.0,75.8,17
4133607,33069412727,630.0,672.0,458.0,1,0.653,776.0,75.8,17
4133608,33069420723,598.0,654.0,451.0,0,0.675,776.0,75.8,17
4133609,33069428726,560.0,631.0,439.0,0,0.696,776.0,75.8,17
4133610,33069436723,523.0,605.0,422.0,0,0.714,776.0,75.8,17
4133611,33069444723,479.0,574.0,401.0,0,0.723,776.0,75.8,17
4133612,33069452723,436.0,541.0,375.0,0,0.731,776.0,75.8,17
4133613,33069460723,393.0,505.0,346.0,0,0.725,776.0,75.8,17
4133614,33069468726,341.0,465.0,314.0,0,0.714,776.0,75.8,17
4133615,33069476727,298.0,425.0,279.0,0,0.698,776.0,75.8,17
4133616,33069484723,250.0,382.0,241.0,0,0.678,776.0,75.8,17
4133617,33069492723,209.0,340.0,202.0,0,0.647,776.0,75.8,17
4133618,33069500723,173.0,300.0,163.0,0,0.613,776.0,75.8,17
4133619,33069508723,139.0,261.0,123.0,0,0.582,776.0,75.8,17
4133620,33069516723,102.0,222.0,84.0,0,0.547,776.0,75.8,17
4133621,33069524724,74.0,186.0,46.0,0,0.514,776.0,75.8,17
4133622,33069532726,49.0,153.0,9.0,0,0.51,776.0,75.8,17
4133623,33069540725,25.0,122.0,-25.0,0,0.524,776.0,75.8,17
4133624,33069548726,12.0,95.0,-58.0,0,0.546,776.0,75.8,17
4133625,33069556726,0.0,72.0,-87.0,0,0.553,776.0,75.8,19
4133626,33069564723,0.0,55.0,-112.0,0,0.554,776.0,75.8,19
4133627,33069572723,0.0,41.0,-134.0,0,0.557,776.0,75.8,19
4133628,33069580723,0.0,31.0,-152.0,0,0.55,776.0,75.8,19
4133629,33069588723,0.0,24.0,-167.0,0,0.546,776.0,75.8,19
4133630,33069596723,0.0,18.0,-179.0,0,0.538,776.0,75.8,19
4133631,33069604723,0.0,14.0,-188.0,0,0.528,776.0,75.8,19
4133632,33069612723,0.0,10.0,-195.0,0,0.522,776.0,75.8,19
4133633,33069620724,2.0,8.0,-200.0,0,0.514,776.0,75.8,17
4133634,33069628723,3.0,7.0,-204.0,0,0.511,776.0,75.8,17
4133635,33069636723,11.0,8.0,-206.0,0,0.502,776.0,75.8,17
4133636,33069644723,16.0,10.0,-206.0,1,0.491,776.0,75.8,17
4133637,33069652723,17.0,12.0,-206.0,0,0.49,776.0,75.8,17
4133638,33069660727,20.0,14.0,-204.0,0,0.497,776.0,75.8,17
4133639,33069668723,21.0,15.0,-203.0,0,0.49,776.0,75.8,17
4133640,33069676726,21.0,17.0,-200.0,0,0.497,776.0,75.8,17
4133641,33069684723,24.0,19.0,-198.0,0,0.489,776.0,75.8,17
4133642,33069692723,22.0,19.0,-196.0,0,0.486,776.0,75.8,17
4133643,33069700723,20.0,20.0,-194.0,0,0.483,776.0,75.8,17
4133644,33069708723,22.0,20.0,-192.0,0,0.48,776.0,75.8,17
4133645,33069716723,21.0,20.0,-190.0,0,0.478,776.0,75.8,17
4133646,33069724723,20.0,20.0,-188.0,0,0.475,776.0,75.8,17
4133647,33069732725,16.0,19.0,-187.0,0,0.468,776.0,75.8,17
4133648,33069740723,19.0,19.0,-186.0,0,0.466,776.0,75.8,17
4133649,33069748725,15.0,18.0,-185.0,0,0.465,776.0,75.8,17
4133650,33069756726,17.0,18.0,-184.0,0,0.463,776.0,75.8,17
4133651,33069764724,19.0,18.0,-183.0,0,0.462,776.0,75.8,17
4133652,33069772723,22.0,19.0,-182.0,0,0.46,776.0,75.8,17
4133653,33069780728,20.0,19.0,-180.0,0,0.464,776.0,75.8,17
4133654,33069788728,25.0,21.0,-179.0,0,0.457,776.0,75.8,17
4133655,33069796727,24.0,21.0,-177.0,0,0.461,776.0,75.8,17
4133656,33069804727,31.0,24.0,-174.0,0,0.464,776.0,75.8,17
4133657,33069812723,33.0,26.0,-172.0,0,0.456,776.0,75.8,17
4133658,33069820723,35.0,28.0,-169.0,0,0.459,776.0,75.8,17
4133659,33069828723,39.0,31.0,-166.0,0,0.457,776.0,75.8,17
4133660,33069836723,43.0,34.0,-163.0,0,0.454,776.0,75.8,17
4133661,33069844723,45.0,36.0,-159.0,0,0.456,776.0,75.8,17
4133662,33069852723,56.0,41.0,-155.0,0,0.453,776.0,75.8,17
4133663,33069860723,58.0,45.0,-151.0,0,0.449,776.0,75.8,17
4133664,33069868724,61.0,49.0,-147.0,0,0.446,776.0,75.8,17
4133665,33069876723,69.0,54.0,-142.0,0,0.448,776.0,75.8,17
4133666,33069884726,75.0,59.0,-137.0,0,0.443,776.0,75.8,17
4133667,33069892722,77.0,63.0,-132.0,0,0.439,776.0,75.8,17
4133668,33069900723,83.0,68.0,-126.0,0,0.44,776.0,75.8,17
4133669,33069908723,87.0,73.0,-121.0,0,0.43,776.0,75.8,17
4133670,33069916723,95.0,78.0,-116.0,0,0.426,776.0,75.8,17
4133671,33069924723,97.0,83.0,-110.0,0,0.426,776.0,75.8,17
4133672,33069932723,102.0,87.0,-105.0,0,0.416,776.0,75.8,17
4133673,33069940724,107.0,92.0,-99.0,0,0.417,776.0,75.8,17
4133674,33069948724,110.0,96.0,-94.0,0,0.407,776.0,75.8,17
4133675,33069956722,113.0,100.0,-89.0,0,0.403,776.0,75.8,17
4133676,33069964723,115.0,104.0,-84.0,0,0.399,776.0,75.8,17
4133677,33069972723,121.0,108.0,-80.0,0,0.39,776.0,75.8,17
4133678,33069980723,126.0,112.0,-75.0,0,0.392,776.0,75.8,17
4133679,33069988726,126.0,116.0,-71.0,0,0.383,776.0,75.8,17
4133680,33069996727,136.0,121.0,-66.0,0,0.385,776.0,75.8,17
4133681,33070004723,151.0,128.0,-60.0,0,0.386,776.0,75.8,17
4133682,33070012723,168.0,138.0,-54.0,0,0.381,776.0,75.8,17
4133683,33070020727,191.0,151.0,-45.0,0,0.392,776.0,75.8,17
4133684,33070028723,221.0,168.0,-34.0,0,0.395,776.0,75.8,17
4133685,33070036727,261.0,190.0,-20.0,0,0.403,776.0,75.8,17
4133686,33070044724,305.0,218.0,-2.0,0,0.424,776.0,75.8,17
4133687,33070052725,357.0,252.0,21.0,0,0.47,776.0,75.8,17
4133688,33070060723,409.0,290.0,47.0,0,0.508,776.0,75.8,17
4133689,33070068723,463.0,332.0,78.0,0,0.558,776.0,75.8,17
4133690,33070076723,520.0,377.0,113.0,0,0.605,776.0,75.8,17
4133691,33070084723,564.0,423.0,150.0,0,0.646,776.0,75.8,17
4133692,33070092724,614.0,469.0,189.0,0,0.687,776.0,75.8,17
4133693,33070100724,662.0,516.0,230.0,0,0.728,776.0,75.8,17
4133694,33070108724,695.0,559.0,271.0,0,0.759,776.0,75.8,17
4133695,33070116723,729.0,600.0,311.0,0,0.783,776.0,75.8,17
4133696,33070124724,749.0,636.0,349.0,0,0.8,776.0,75.8,17
4133697,33070132723,758.0,666.0,384.0,0,0.807,776.0,75.8,17
4133698,33070140723,767.0,690.0,415.0,0,0.804,776.0,75.8,17
4133699,33070148723,757.0,707.0,440.0,0,0.785,776.0,75.8,17
4133700,33070156724,744.0,716.0,460.0,0,0.765,776.0,75.8,17
4133701,33070164723,720.0,717.0,474.0,0,0.735,776.0,75.8,17
4133702,33070172723,696.0,712.0,481.0,0,0.696,776.0,75.8,17
4133703,33070180723,667.0,701.0,483.0,0,0.667,776.0,75.8,17
4133704,33070188723,628.0,683.0,477.0,1,0.685,776.0,75.8,17
4133705,33070196723,592.0,661.0,467.0,0,0.702,776.0,75.8,17
4133706,33070204727,552.0,635.0,451.0,0,0.727,776.0,75.8,17
4133707,33070212723,515.0,606.0,430.0,0,0.743,776.0,75.8,17
4133708,33070220723,469.0,573.0,405.0,0,0.749,776.0,75.8,17
4133709,33070228726,428.0,537.0,377.0,0,0.745,776.0,75.8,17
4133710,33070236723,380.0,499.0,346.0,0,0.737,776.0,75.8,17
4133711,33070244726,337.0,460.0,311.0,0,0.727,776.0,75.8,17
4133712,33070252723,291.0,419.0,275.0,0,0.702,776.0,75.8,17
4133713,33070260726,247.0,377.0,237.0,0,0.677,776.0,75.8,17
4133714,33070268724,204.0,335.0,197.0,0,0.649,776.0,75.8,17
4133715,33070276727,165.0,294.0,157.0,0,0.613,776.0,75.8,17
4133716,33070284725,131.0,254.0,117.0,0,0.579,776.0,75.8,17
4133717,33070292726,100.0,217.0,78.0,0,0.544,776.0,75.8,17
4133718,33070300723,69.0,181.0,40.0,0,0.511,776.0,75.8,17
4133719,33070308723,44.0,148.0,3.0,0,0.516,776.0,75.8,17
4133720,33070316723,25.0,118.0,-31.0,0,0.531,776.0,75.8,17
4133721,33070324724,9.0,92.0,-63.0,0,0.549,776.0,75.8,17
4133722,33070332722,0.0,69.0,-92.0,0,0.56,776.0,75.8,19
4133723,33070340723,0.0,53.0,-117.0,0,0.561,776.0,75.8,19
4133724,33070348723,0.0,40.0,-138.0,0,0.558,776.0,75.8,19
4133725,33070356723,0.0,30.0,-156.0,0,0.557,776.0,75.8,19
4133726,33070364723,0.0,23.0,-170.0,0,0.546,776.0,75.8,19
4133727,33070372723,0.0,17.0,-181.0,0,0.537,776.0,75.8,19
4133728,33070380723,0.0,13.0,-190.0,0,0.533,776.0,75.8,19
4133729,33070388723,0.0,10.0,-197.0,0,0.526,776.0,75.8,19
4133730,33070396726,0.0,8.0,-202.0,0,0.519,776.0,75.8,19
4133731,33070404723,0.0,6.0,-206.0,0,0.516,776.0,75.8,19
4133732,33070412723,0.0,4.0,-209.0,0,0.512,776.0,75.8,19
4133733,33070420723,0.0,3.0,-211.0,0,0.508,776.0,75.8,19
4133734,33070428723,0.0,2.0,-212.0,0,0.503,776.0,75.8,19
4133735,33070436723,3.0,3.0,-212.0,1,0.497,776.0,75.8,17
4133736,33070444723,3.0,3.0,-212.0,0,0.496,776.0,75.8,17
4133737,33070452724,9.0,4.0,-211.0,0,0.499,776.0,75.8,17
4133738,33070460723,7.0,5.0,-210.0,0,0.497,776.0,75.8,17
4133739,33070468723,9.0,6.0,-208.0,0,0.499,776.0,75.8,17
4133740,33070476723,13.0,8.0,-206.0,0,0.496,776.0,75.8,17
4133741,33070484726,9.0,8.0,-204.0,0,0.494,776.0,75.8,17
4133742,33070492726,14.0,9.0,-202.0,0,0.491,776.0,75.8,17
4133743,33070500724,13.0,10.0,-200.0,0,0.488,776.0,75.8,17
4133744,33070508727,12.0,11.0,-198.0,0,0.485,776.0,75.8,17
4133745,33070516727,12.0,11.0,-196.0,0,0.483,776.0,75.8,17
4133746,33070524724,10.0,11.0,-194.0,0,0.48,776.0,75.8,17
4133747,33070532723,12.0,11.0,-193.0,0,0.473,776.0,75.8,17
4133748,33070540725,14.0,12.0,-191.0,0,0.476,776.0,75.8,17
4133749,33070548723,12.0,12.0,-189.0,0,0.474,776.0,75.8,17
4133750,33070556725,15.0,13.0,-188.0,0,0.467,776.0,75.8,17
4133751,33070564723,17.0,14.0,-186.0,0,0.471,776.0,75.8,17
4133752,33070572724,16.0,14.0,-184.0,0,0.469,776.0,75.8,17
4133753,33070580722,18.0,15.0,-182.0,0,0.467,776.0,75.8,17
4133754,33070588723,20.0,16.0,-180.0,0,0.465,776.0,75.8,17
4133755,33070596723,21.0,17.0,-178.0,0,0.463,776.0,75.8,17
4133756,33070604723,26.0,20.0,-175.0,0,0.466,776.0,75.8,17
4133757,33070612725,28.0,22.0,-173.0,0,0.459,776.0,75.8,17
4133758,33070620723,30.0,24.0,-170.0,0,0.462,776.0,75.8,17
4133759,33070628728,36.0,27.0,-167.0,0,0.459,776.0,75.8,17
4133760,33070636723,43.0,31.0,-163.0,0,0.462,776.0,75.8,17
4133761,33070644724,43.0,34.0,-159.0,0,0.458,776.0,75.8,17
4133762,33070652724,51.0,38.0,-155.0,0,0.455,776.0,75.8,17
4133763,33070660723,57.0,42.0,-151.0,0,0.451,776.0,75.8,17
4133764,33070668726,60.0,47.0,-146.0,0,0.453,776.0,75.8,17
4133765,33070676724,69.0,52.0,-141.0,0,0.448,776.0,75.8,17
4133766,33070684725,71.0,57.0,-136.0,0,0.444,776.0,75.8,17
4133767,33070692723,79.0,62.0,-130.0,0,0.445,776.0,75.8,17
4133768,33070700726,84.0,67.0,-124.0,0,0.44,776.0,75.8,17
4133769,33070708727,88.0,72.0,-119.0,0,0.429,776.0,75.8,17
4133770,33070716723,95.0,78.0,-113.0,0,0.43,776.0,75.8,17
4133771,33070724725,103.0,84.0,-107.0,0,0.425,776.0,75.8,17
4133772,33070732722,109.0,90.0,-101.0,0,0.42,776.0,75.8,17
4133773,33070740722,113.0,96.0,-94.0,0,0.42,776.0,75.8,17
4133774,33070748724,115.0,100.0,-89.0,0,0.404,776.0,75.8,17
4133775,33070756723,119.0,105.0,-83.0,0,0.405,776.0,75.8,17
4133776,33070764724,120.0,109.0,-78.0,0,0.395,776.0,75.8,17
4133777,33070772726,126.0,113.0,-73.0,0,0.391,776.0,75.8,17
4133778,33070780723,130.0,117.0,-68.0,0,0.386,776.0,75.8,17
4133779,33070788723,141.0,123.0,-63.0,0,0.382,776.0,75.8,17
4133780,33070796723,155.0,131.0,-56.0,0,0.389,776.0,75.8,17
4133781,33070804724,175.0,141.0,-49.0,0,0.383,776.0,75.8,17
4133782,33070812723,197.0,155.0,-40.0,0,0.388,776.0,75.8,17
4133783,33070820727,236.0,175.0,-28.0,0,0.397,776.0,75.8,17
4133784,33070828724,278.0,200.0,-12.0,0,0.409,776.0,75.8,17
4133785,33070836723,327.0,230.0,8.0,0,0.446,776.0,75.8,17
4133786,33070844723,383.0,267.0,33.0,0,0.495,776.0,75.8,17
4133787,33070852724,438.0,309.0,62.0,0,0.54,776.0,75.8,17
4133788,33070860723,499.0,355.0,96.0,0,0.592,776.0,75.8,17
4133789,33070868727,556.0,404.0,133.0,0,0.637,776.0,75.8,17
4133790,33070876724,608.0,453.0,174.0,0,0.687,776.0,75.8,17
4133791,33070884723,660.0,503.0,216.0,0,0.726,776.0,75.8,17
4133792,33070892723,704.0,552.0,260.0,0,0.767,776.0,75.8,17
4133793,33070900726,746.0,599.0,304.0,0,0.798,776.0,75.8,17
4133794,33070908723,777.0,642.0,347.0,0,0.822,776.0,75.8,17
4133795,33070916723,804.0,681.0,387.0,0,0.833,776.0,75.8,17
4133796,33070924723,813.0,713.0,425.0,0,0.843,776.0,75.8,17
4133797,33070932726,813.0,737.0,457.0,0,0.831,776.0,75.8,17
4133798,33070940724,806.0,754.0,484.0,0,0.816,776.0,75.8,17
4133799,33070948723,787.0,762.0,505.0,0,0.79,776.0,75.8,17
4133800,33070956723,757.0,761.0,518.0,0,0.747,776.0,75.8,17
4133801,33070964726,727.0,753.0,524.0,0,0.707,776.0,75.8,17
4133802,33070972724,694.0,738.0,523.0,1,0.678,776.0,75.8,17
4133803,33070980723,654.0,718.0,516.0,0,0.706,776.0,75.8,17
4133804,33070988722,615.0,693.0,503.0,0,0.734,776.0,75.8,17
4133805,33070996723,576.0,665.0,484.0,0,0.76,776.0,75.8,17
4133806,33071004724,538.0,634.0,462.0,0,0.765,776.0,75.8,17
4133807,33071012724,492.0,600.0,435.0,0,0.776,776.0,75.8,17
4133808,33071020724,445.0,562.0,404.0,0,0.776,776.0,75.8,17
4133809,33071028723,396.0,522.0,371.0,0,0.762,776.0,75.8,17
4133810,33071036726,347.0,479.0,334.0,0,0.751,776.0,75.8,17
4133811,33071044723,306.0,437.0,295.0,0,0.728,776.0,75.8,17
4133812,33071052724,260.0,394.0,255.0,0,0.698,776.0,75.8,17
4133813,33071060724,215.0,351.0,214.0,0,0.665,776.0,75.8,17
4133814,33071068723,173.0,308.0,172.0,0,0.631,776.0,75.8,17
4133815,33071076723,138.0,267.0,130.0,0,0.595,776.0,75.8,17
4133816,33071084724,102.0,227.0,89.0,0,0.557,776.0,75.8,17
4133817,33071092725,72.0,189.0,49.0,0,0.522,776.0,75.8,17
4133818,33071100727,48.0,155.0,11.0,0,0.515,776.0,75.8,17
4133819,33071108723,20.0,122.0,-26.0,0,0.539,776.0,75.8,17
4133820,33071116723,3.0,93.0,-60.0,0,0.555,776.0,75.8,17
4133821,33071124726,0.0,71.0,-90.0,0,0.563,776.0,75.8,19
4133822,33071132723,0.0,54.0,-117.0,0,0.572,776.0,75.8,19
4133823,33071140723,0.0,41.0,-139.0,0,0.566,776.0,75.8,19
4133824,33071148723,0.0,31.0,-157.0,0,0.559,776.0,75.8,19
4133825,33071156723,0.0,23.0,-172.0,0,0.554,776.0,75.8,19
4133826,33071164723,0.0,18.0,-183.0,0,0.54,776.0,75.8,19
4133827,33071172723,0.0,13.0,-193.0,0,0.542,776.0,75.8,19
4133828,33071180723,0.0,10.0,-200.0,0,0.531,776.0,75.8,19
4133829,33071188723,0.0,8.0,-205.0,0,0.523,776.0,75.8,19
4133830,33071196723,0.0,6.0,-209.0,0,0.52,776.0,75.8,19
4133831,33071204723,0.0,4.0,-212.0,0,0.517,776.0,75.8,19
4133832,33071212723,0.0,3.0,-214.0,0,0.512,776.0,75.8,19
4133833,33071220723,0.0,3.0,-215.0,0,0.507,776.0,75.8,19
4133834,33071228723,0.0,2.0,-215.0,1,0.501,776.0,75.8,19
4133835,33071236724,0.0,1.0,-216.0,0,0.506,776.0,75.8,19
4133836,33071244723,0.0,1.0,-215.0,1,0.504,776.0,75.8,19
4133837,33071252723,0.0,1.0,-215.0,1,0.498,776.0,75.8,19
4133838,33071260723,0.0,1.0,-214.0,0,0.501,776.0,75.8,19
4133839,33071268723,0.0,0.0,-213.0,0,0.499,776.0,75.8,19
4133840,33071276723,0.0,0.0,-212.0,0,0.497,776.0,75.8,19
4133841,33071284727,0.0,0.0,-211.0,0,0.495,776.0,75.8,19
4133842,33071292723,0.0,0.0,-210.0,0,0.493,776.0,75.8,19
4133843,33071300723,0.0,0.0,-209.0,0,0.491,776.0,75.8,19
4133844,33071308724,0.0,0.0,-208.0,0,0.489,776.0,75.8,19
4133845,33071316723,0.0,0.0,-207.0,0,0.488,776.0,75.8,19
4133846,33071324724,0.0,0.0,-205.0,0,0.491,776.0,75.8,19
4133847,33071332723,0.0,0.0,-204.0,0,0.483,776.0,75.8,19
4133848,33071340723,0.0,0.0,-203.0,0,0.482,776.0,75.8,19
4133849,33071348723,5.0,1.0,-201.0,0,0.485,776.0,75.8,17
4133850,33071356723,10.0,3.0,-199.0,0,0.483,776.0,75.8,17
4133851,33071364723,16.0,6.0,-196.0,0,0.486,776.0,75.8,17
4133852,33071372723,13.0,8.0,-193.0,0,0.483,776.0,75.8,17
4133853,33071380728,19.0,11.0,-190.0,0,0.48,776.0,75.8,17
4133854,33071388726,23.0,14.0,-187.0,0,0.477,776.0,75.8,17
4133855,33071396727,25.0,16.0,-183.0,0,0.479,776.0,75.8,17
4133856,33071404726,30.0,20.0,-179.0,0,0.476,776.0,75.8,17
4133857,33071412725,36.0,24.0,-175.0,0,0.472,776.0,75.8,17
4133858,33071420723,39.0,27.0,-171.0,0,0.468,776.0,75.8,17
4133859,33071428723,46.0,32.0,-166.0,0,0.47,776.0,75.8,17
4133860,33071436727,49.0,36.0,-161.0,0,0.466,776.0,75.8,17
4133861,33071444728,57.0,41.0,-156.0,0,0.461,776.0,75.8,17
4133862,33071452723,61.0,46.0,-151.0,0,0.457,776.0,75.8,17
4133863,33071460725,72.0,52.0,-145.0,0,0.457,776.0,75.8,17
4133864,33071468724,77.0,58.0,-139.0,0,0.452,776.0,75.8,17
4133865,33071476723,81.0,64.0,-133.0,0,0.447,776.0,75.8,17
4133866,33071484724,85.0,69.0,-127.0,0,0.442,776.0,75.8,17
4133867,33071492723,91.0,74.0,-121.0,0,0.436,776.0,75.8,17
4133868,33071500723,96.0,80.0,-115.0,0,0.431,776.0,75.8,17
4133869,33071508723,100.0,84.0,-109.0,0,0.426,776.0,75.8,17
4133870,33071516724,105.0,89.0,-103.0,0,0.421,776.0,75.8,17
4133871,33071524726,108.0,94.0,-97.0,0,0.416,776.0,75.8,17
4133872,33071532723,113.0,99.0,-92.0,0,0.406,776.0,75.8,17
4133873,33071540724,114.0,102.0,-87.0,0,0.402,776.0,75.8,17
4133874,33071548725,116.0,106.0,-82.0,0,0.398,776.0,75.8,17
4133875,33071556726,120.0,109.0,-77.0,0,0.393,776.0,75.8,17
4133876,33071564723,122.0,112.0,-73.0,0,0.384,776.0,75.8,17
4133877,33071572723,127.0,116.0,-69.0,0,0.381,776.0,75.8,17
4133878,33071580723,132.0,120.0,-65.0,0,0.378,776.0,75.8,17
4133879,33071588725,140.0,125.0,-60.0,0,0.38,776.0,75.8,17
4133880,33071596726,147.0,130.0,-56.0,0,0.371,776.0,75.8,17
4133881,33071604724,160.0,137.0,-50.0,0,0.378,776.0,75.8,17
4133882,33071612723,186.0,149.0,-43.0,0,0.379,776.0,75.8,17
4133883,33071620723,212.0,164.0,-33.0,0,0.389,776.0,75.8,17
4133884,33071628723,240.0,183.0,-21.0,0,0.392,776.0,75.8,17
4133885,33071636723,287.0,208.0,-5.0,0,0.412,776.0,75.8,17
4133886,33071644725,332.0,238.0,15.0,0,0.452,776.0,75.8,17
4133887,33071652726,383.0,273.0,39.0,0,0.494,776.0,75.8,17
4133888,33071660723,439.0,313.0,67.0,0,0.539,776.0,75.8,17
4133889,33071668726,494.0,357.0,100.0,0,0.591,776.0,75.8,17
4133890,33071676723,550.0,404.0,136.0,0,0.636,776.0,75.8,17
4133891,33071684723,606.0,453.0,175.0,0,0.681,776.0,75.8,17
4133892,33071692723,654.0,502.0,216.0,0,0.723,776.0,75.8,17
4133893,33071700723,695.0,549.0,258.0,0,0.76,776.0,75.8,17
4133894,33071708724,730.0,593.0,300.0,0,0.79,776.0,75.8,17
4133895,33071716723,761.0,633.0,341.0,0,0.812,776.0,75.8,17
4133896,33071724723,781.0,669.0,380.0,0,0.827,776.0,75.8,17
4133897,33071732723,788.0,698.0,414.0,0,0.823,776.0,75.8,17
4133898,33071740723,788.0,720.0,445.0,0,0.822,776.0,75.8,17
4133899,33071748723,774.0,733.0,469.0,0,0.796,776.0,75.8,17
4133900,33071756727,752.0,738.0,486.0,0,0.762,776.0,75.8,17
4133901,33071764723,724.0,734.0,497.0,0,0.729,776.0,75.8,17
4133902,33071772723,694.0,725.0,501.0,0,0.689,776.0,75.8,17
4133903,33071780723,660.0,709.0,498.0,1,0.681,776.0,75.8,17
4133904,33071788723,621.0,688.0,489.0,0,0.709,776.0,75.8,17
4133905,33071796724,579.0,661.0,475.0,0,0.731,776.0,75.8,17
4133906,33071804723,539.0,632.0,455.0,0,0.755,776.0,75.8,17
4133907,33071812723,497.0,599.0,431.0,0,0.763,776.0,75.8,17
4133908,33071820722,452.0,563.0,403.0,0,0.766,776.0,75.8,17
4133909,33071828723,405.0,525.0,371.0,0,0.763,776.0,75.8,17
4133910,33071836723,365.0,486.0,337.0,0,0.747,776.0,75.8,17
4133911,33071844723,313.0,444.0,300.0,0,0.73,776.0,75.8,17
4133912,33071852725,270.0,402.0,262.0,0,0.702,776.0,75.8,17
4133913,33071860723,229.0,360.0,222.0,0,0.675,776.0,75.8,17
4133914,33071868726,185.0,318.0,181.0,0,0.642,776.0,75.8,17
4133915,33071876723,152.0,277.0,141.0,0,0.603,776.0,75.8,17
4133916,33071884723,116.0,238.0,100.0,0,0.572,776.0,75.8,17
4133917,33071892727,91.0,203.0,62.0,0,0.531,776.0,75.8,17
4133918,33071900724,63.0,169.0,24.0,0,0.505,776.0,75.8,17
4133919,33071908723,44.0,139.0,-11.0,0,0.52,776.0,75.8,17
4133920,33071916723,28.0,112.0,-43.0,0,0.533,776.0,75.8,17
4133921,33071924727,17.0,89.0,-73.0,0,0.549,776.0,75.8,17
4133922,33071932724,7.0,69.0,-99.0,0,0.552,776.0,75.8,17
4133923,33071940723,0.0,52.0,-123.0,0,0.562,776.0,75.8,19
4133924,33071948723,0.0,40.0,-142.0,0,0.551,776.0,75.8,19
4133925,33071956724,0.0,30.0,-159.0,0,0.554,776.0,75.8,19
4133926,33071964726,0.0,23.0,-173.0,0,0.548,776.0,75.8,19
4133927,33071972723,0.0,17.0,-183.0,0,0.534,776.0,75.8,19
4133928,33071980723,0.0,13.0,-192.0,0,0.535,776.0,75.8,19
4133929,33071988723,0.0,10.0,-198.0,0,0.522,776.0,75.8,19
4133930,33071996724,0.0,7.0,-203.0,0,0.52,776.0,75.8,19
4133931,33072004723,0.0,6.0,-207.0,0,0.517,776.0,75.8,19
4133932,33072012723,7.0,6.0,-209.0,0,0.507,776.0,75.8,17
4133933,33072020724,8.0,6.0,-210.0,0,0.502,776.0,75.8,17
4133934,33072028723,9.0,7.0,-210.0,1,0.496,776.0,75.8,17
4133935,33072036723,11.0,8.0,-210.0,0,0.495,776.0,75.8,17
4133936,33072044726,14.0,9.0,-208.0,0,0.502,776.0,75.8,17
4133937,33072052727,16.0,11.0,-207.0,0,0.495,776.0,75.8,17
4133938,33072060727,17.0,13.0,-205.0,0,0.497,776.0,75.8,17
4133939,33072068723,12.0,12.0,-203.0,0,0.495,776.0,75.8,17
4133940,33072076726,13.0,13.0,-201.0,0,0.492,776.0,75.8,17
4133941,33072084727,14.0,13.0,-200.0,0,0.485,776.0,75.8,17
4133942,33072092726,16.0,14.0,-198.0,0,0.487,776.0,75.8,17
4133943,33072100723,13.0,13.0,-196.0,0,0.485,776.0,75.8,17
4133944,33072108727,16.0,14.0,-194.0,0,0.483,776.0,75.8,17
4133945,33072116726,16.0,15.0,-193.0,0,0.476,776.0,75.8,17
4133946,33072124724,15.0,15.0,-191.0,0,0.479,776.0,75.8,17
4133947,33072132723,17.0,15.0,-190.0,0,0.472,776.0,75.8,17
4133948,33072140723,14.0,15.0,-188.0,0,0.476,776.0,75.8,17
4133949,33072148724,18.0,16.0,-187.0,0,0.469,776.0,75.8,17
4133950,33072156723,16.0,16.0,-185.0,0,0.473,776.0,75.8,17
4133951,33072164723,17.0,16.0,-184.0,0,0.466,776.0,75.8,17
4133952,33072172726,20.0,17.0,-182.0,0,0.47,776.0,75.8,17
4133953,33072180723,20.0,18.0,-180.0,0,0.468,776.0,75.8,17
4133954,33072188723,28.0,20.0,-178.0,0,0.467,776.0,75.8,17
4133955,33072196723,30.0,23.0,-175.0,0,0.47,776.0,75.8,17
4133956,33072204726,34.0,25.0,-172.0,0,0.467,776.0,75.8,17
4133957,33072212728,33.0,27.0,-169.0,0,0.464,776.0,75.8,17
4133958,33072220723,42.0,31.0,-166.0,0,0.462,776.0,75.8,17
4133959,33072228723,44.0,34.0,-162.0,0,0.464,776.0,75.8,17
4133960,33072236725,52.0,38.0,-158.0,0,0.461,776.0,75.8,17
4133961,33072244726,53.0,42.0,-154.0,0,0.457,776.0,75.8,17
4133962,33072252723,61.0,47.0,-149.0,0,0.459,776.0,75.8,17
4133963,33072260728,64.0,51.0,-144.0,0,0.454,776.0,75.8,17
4133964,33072268723,70.0,55.0,-139.0,0,0.45,776.0,75.8,17
4133965,33072276723,74.0,60.0,-134.0,0,0.445,776.0,75.8,17
4133966,33072284723,77.0,64.0,-129.0,0,0.441,776.0,75.8,17
4133967,33072292724,83.0,69.0,-124.0,0,0.437,776.0,75.8,17
4133968,33072300726,89.0,74.0,-119.0,0,0.432,776.0,75.8,17
4133969,33072308723,92.0,78.0,-114.0,0,0.428,776.0,75.8,17
4133970,33072316723,96.0,82.0,-108.0,0,0.429,776.0,75.8,17
4133971,33072324725,100.0,87.0,-103.0,0,0.418,776.0,75.8,17
4133972,33072332725,105.0,91.0,-98.0,0,0.414,776.0,75.8,17
4133973,33072340723,108.0,95.0,-93.0,0,0.41,776.0,75.8,17
4133974,33072348723,112.0,99.0,-89.0,0,0.401,776.0,75.8,17
4133975,33072356726,117.0,104.0,-84.0,0,0.403,776.0,75.8,17
4133976,33072364725,124.0,109.0,-79.0,0,0.398,776.0,75.8,17
4133977,33072372723,124.0,112.0,-74.0,0,0.394,776.0,75.8,17
4133978,33072380724,127.0,116.0,-70.0,0,0.385,776.0,75.8,17
4133979,33072388723,137.0,121.0,-65.0,0,0.387,776.0,75.8,17
4133980,33072396725,143.0,126.0,-60.0,0,0.383,776.0,75.8,17
4133981,33072404723,157.0,134.0,-54.0,0,0.384,776.0,75.8,17
4133982,33072412723,178.0,144.0,-47.0,0,0.384,776.0,75.8,17
4133983,33072420724,200.0,158.0,-38.0,0,0.389,776.0,75.8,17
4133984,33072428725,234.0,176.0,-26.0,0,0.398,776.0,75.8,17
4133985,33072436726,275.0,200.0,-11.0,0,0.404,776.0,75.8,17
4133986,33072444726,317.0,229.0,8.0,0,0.435,776.0,75.8,17
4133987,33072452724,370.0,263.0,31.0,0,0.476,776.0,75.8,17
4133988,33072460723,431.0,304.0,59.0,0,0.526,776.0,75.8,17
4133989,33072468725,484.0,347.0,91.0,0,0.572,776.0,75.8,17
4133990,33072476726,542.0,395.0,127.0,0,0.62,776.0,75.8,17
4133991,33072484723,597.0,444.0,166.0,0,0.666,776.0,75.8,17
4133992,33072492724,639.0,491.0,207.0,0,0.707,776.0,75.8,17
4133993,33072500725,687.0,539.0,249.0,0,0.745,776.0,75.8,17
4133994,33072508723,723.0,583.0,292.0,0,0.779,776.0,75.8,17
4133995,33072516723,755.0,625.0,333.0,0,0.8,776.0,75.8,17
4133996,33072524723,775.0,661.0,372.0,0,0.815,776.0,75.8,17
4133997,33072532726,791.0,693.0,408.0,0,0.821,776.0,75.8,17
4133998,33072540725,795.0,718.0,439.0,0,0.813,776.0,75.8,17
4133999,33072548723,784.0,734.0,465.0,0,0.799,776.0,75.8,17
4134000,33072556723,766.0,741.0,485.0,0,0.773,776.0,75.8,17
4134001,33072564723,741.0,741.0,499.0,0,0.742,776.0,75.8,17
4134002,33072572724,713.0,734.0,505.0,0,0.697,776.0,75.8,17
4134003,33072580727,680.0,721.0,505.0,1,0.664,776.0,75.8,17
4134004,33072588723,645.0,703.0,499.0,0,0.692,776.0,75.8,17
4134005,33072596726,608.0,680.0,487.0,0,0.719,776.0,75.8,17
4134006,33072604723,565.0,652.0,469.0,0,0.744,776.0,75.8,17
4134007,33072612723,522.0,620.0,447.0,0,0.754,776.0,75.8,17
4134008,33072620723,482.0,587.0,421.0,0,0.76,776.0,75.8,17
4134009,33072628723,437.0,551.0,392.0,0,0.757,776.0,75.8,17
4134010,33072636724,391.0,512.0,359.0,0,0.753,776.0,75.8,17
4134011,33072644725,344.0,471.0,324.0,0,0.736,776.0,75.8,17
4134012,33072652724,301.0,430.0,286.0,0,0.718,776.0,75.8,17
4134013,33072660724,255.0,388.0,247.0,0,0.69,776.0,75.8,17
4134014,33072668723,210.0,344.0,206.0,0,0.662,776.0,75.8,17
4134015,33072676726,170.0,302.0,165.0,0,0.628,776.0,75.8,17
4134016,33072684723,135.0,262.0,124.0,0,0.593,776.0,75.8,17
4134017,33072692723,100.0,222.0,84.0,0,0.558,776.0,75.8,17
4134018,33072700724,70.0,186.0,45.0,0,0.525,776.0,75.8,17
4134019,33072708723,44.0,151.0,7.0,0,0.516,776.0,75.8,17
4134020,33072716723,21.0,120.0,-29.0,0,0.535,776.0,75.8,17
4134021,33072724723,7.0,92.0,-62.0,0,0.549,776.0,75.8,17
4134022,33072732723,0.0,70.0,-92.0,0,0.561,776.0,75.8,19
4134023,33072740723,0.0,53.0,-117.0,0,0.557,776.0,75.8,19
4134024,33072748726,0.0,40.0,-139.0,0,0.56,776.0,75.8,19
4134025,33072756723,0.0,30.0,-157.0,0,0.553,776.0,75.8,19
4134026,33072764723,0.0,23.0,-171.0,0,0.542,776.0,75.8,19
4134027,33072772726,0.0,17.0,-183.0,0,0.541,776.0,75.8,19
4134028,33072780726,0.0,13.0,-192.0,0,0.531,776.0,75.8,19
4134029,33072788723,0.0,10.0,-199.0,0,0.525,776.0,75.8,19
4134030,33072796723,0.0,8.0,-204.0,0,0.518,776.0,75.8,19
4134031,33072804726,0.0,6.0,-208.0,0,0.515,776.0,75.8,19
4134032,33072812724,0.0,4.0,-211.0,0,0.511,776.0,75.8,19
4134033,33072820725,0.0,3.0,-213.0,0,0.506,776.0,75.8,19
4134034,33072828723,0.0,2.0,-214.0,0,0.501,776.0,75.8,19
4134035,33072836723,0.0,2.0,-214.0,1,0.495,776.0,75.8,19
4134036,33072844723,0.0,1.0,-214.0,0,0.493,776.0,75.8,19
4134037,33072852727,0.0,1.0,-214.0,0,0.492,776.0,75.8,19
4134038,33072860723,3.0,2.0,-214.0,0,0.491,776.0,75.8,17
4134039,33072868727,0.0,1.0,-213.0,0,0.495,776.0,75.8,19
4134040,33072876723,0.0,1.0,-212.0,0,0.493,776.0,75.8,19
4134041,33072884726,0.0,1.0,-211.0,0,0.492,776.0,75.8,19
4134042,33072892723,0.0,1.0,-210.0,0,0.49,776.0,75.8,19
4134043,33072900723,0.0,0.0,-209.0,0,0.489,776.0,75.8,19
4134044,33072908724,1.0,1.0,-208.0,0,0.488,776.0,75.8,17
4134045,33072916723,0.0,0.0,-206.0,0,0.491,776.0,75.8,19
4134046,33072924723,3.0,1.0,-205.0,0,0.484,776.0,75.8,17
4134047,33072932723,3.0,2.0,-203.0,0,0.488,776.0,75.8,17
4134048,33072940723,1.0,1.0,-202.0,0,0.482,776.0,75.8,17
4134049,33072948723,3.0,2.0,-200.0,0,0.485,776.0,75.8,17
4134050,33072956723,4.0,2.0,-199.0,0,0.479,776.0,75.8,17
4134051,33072964723,7.0,3.0,-197.0,0,0.483,776.0,75.8,17
4134052,33072972723,7.0,4.0,-195.0,0,0.481,776.0,75.8,17
4134053,33072980724,12.0,6.0,-193.0,0,0.479,776.0,75.8,17
4134054,33072988726,17.0,9.0,-190.0,0,0.482,776.0,75.8,17
4134055,33072996723,20.0,12.0,-187.0,0,0.48,776.0,75.8,17
4134056,33073004725,30.0,16.0,-183.0,0,0.482,776.0,75.8,17
4134057,33073012723,34.0,20.0,-179.0,0,0.478,776.0,75.8,17
4134058,33073020724,37.0,24.0,-174.0,0,0.48,776.0,75.8,17
4134059,33073028723,45.0,29.0,-169.0,0,0.475,776.0,75.8,17
4134060,33073036724,47.0,34.0,-164.0,0,0.471,776.0,75.8,17
4134061,33073044723,55.0,39.0,-159.0,0,0.467,776.0,75.8,17
4134062,33073052723,62.0,44.0,-153.0,0,0.467,776.0,75.8,17
4134063,33073060723,66.0,50.0,-148.0,0,0.457,776.0,75.8,17
4134064,33073068727,73.0,55.0,-142.0,0,0.458,776.0,75.8,17
4134065,33073076723,83.0,62.0,-135.0,0,0.457,776.0,75.8,17
4134066,33073084724,90.0,69.0,-128.0,0,0.451,776.0,75.8,17
4134067,33073092723,94.0,75.0,-122.0,0,0.44,776.0,75.8,17
4134068,33073100723,102.0,81.0,-115.0,0,0.44,776.0,75.8,17
4134069,33073108723,106.0,87.0,-108.0,0,0.434,776.0,75.8,17
4134070,33073116725,116.0,94.0,-101.0,0,0.428,776.0,75.8,17
4134071,33073124723,117.0,100.0,-94.0,0,0.422,776.0,75.8,17
4134072,33073132723,123.0,105.0,-88.0,0,0.411,776.0,75.8,17
4134073,33073140723,126.0,110.0,-81.0,0,0.411,776.0,75.8,17
4134074,33073148723,127.0,114.0,-76.0,0,0.396,776.0,75.8,17
4134075,33073156723,134.0,119.0,-70.0,0,0.396,776.0,75.8,17
4134076,33073164723,135.0,123.0,-65.0,0,0.387,776.0,75.8,17
4134077,33073172723,135.0,126.0,-60.0,0,0.383,776.0,75.8,17
4134078,33073180724,139.0,129.0,-56.0,0,0.374,776.0,75.8,17
4134079,33073188723,137.0,131.0,-53.0,0,0.366,776.0,75.8,17
4134080,33073196723,140.0,133.0,-49.0,0,0.369,776.0,75.8,17
4134081,33073204723,141.0,135.0,-46.0,0,0.361,776.0,75.8,17
4134082,33073212724,148.0,138.0,-43.0,0,0.359,776.0,75.8,17
4134083,33073220726,159.0,143.0,-39.0,0,0.361,776.0,75.8,17
4134084,33073228724,170.0,150.0,-35.0,0,0.358,776.0,75.8,17
4134085,33073236723,192.0,160.0,-29.0,0,0.365,776.0,75.8,17
4134086,33073244723,219.0,174.0,-20.0,0,0.376,776.0,75.8,17
4134087,33073252724,255.0,194.0,-8.0,0,0.385,776.0,75.8,17
4134088,33073260728,296.0,219.0,7.0,0,0.407,776.0,75.8,17
4134089,33073268728,349.0,250.0,27.0,0,0.453,776.0,75.8,17
4134090,33073276726,405.0,288.0,51.0,0,0.494,776.0,75.8,17
4134091,33073284728,460.0,330.0,81.0,0,0.55,776.0,75.8,17
4134092,33073292726,515.0,374.0,114.0,0,0.592,776.0,75.8,17
4134093,33073300723,572.0,422.0,151.0,0,0.64,776.0,75.8,17
4134094,33073308724,627.0,472.0,191.0,0,0.685,776.0,75.8,17
4134095,33073316723,675.0,521.0,233.0,0,0.727,776.0,75.8,17
4134096,33073324723,718.0,569.0,276.0,0,0.762,776.0,75.8,17
4134097,33073332725,757.0,615.0,319.0,0,0.792,776.0,75.8,17
4134098,33073340725,788.0,657.0,361.0,0,0.814,776.0,75.8,17
4134099,33073348727,806.0,693.0,400.0,0,0.824,776.0,75.8,17
4134100,33073356723,812.0,722.0,435.0,0,0.824,776.0,75.8,17
4134101,33073364726,813.0,744.0,466.0,0,0.819,776.0,75.8,17
4134102,33073372723,797.0,757.0,490.0,0,0.793,776.0,75.8,17
4134103,33073380726,777.0,762.0,508.0,0,0.765,776.0,75.8,17
4134104,33073388725,748.0,758.0,519.0,0,0.728,776.0,75.8,17
4134105,33073396726,717.0,748.0,522.0,0,0.683,776.0,75.8,17
4134106,33073404723,684.0,733.0,520.0,1,0.675,776.0,75.8,17
4134107,33073412726,647.0,712.0,511.0,0,0.708,776.0,75.8,17
4134108,33073420723,604.0,686.0,496.0,0,0.735,776.0,75.8,17
4134109,33073428723,566.0,657.0,477.0,0,0.749,776.0,75.8,17
4134110,33073436723,523.0,624.0,453.0,0,0.764,776.0,75.8,17
4134111,33073444723,477.0,589.0,425.0,0,0.769,776.0,75.8,17
4134112,33073452723,433.0,551.0,393.0,0,0.768,776.0,75.8,17
4134113,33073460726,383.0,510.0,359.0,0,0.755,776.0,75.8,17
4134114,33073468724,341.0,469.0,322.0,0,0.741,776.0,75.8,17
4134115,33073476726,297.0,427.0,283.0,0,0.72,776.0,75.8,17
4134116,33073484724,255.0,386.0,243.0,0,0.692,776.0,75.8,17
4134117,33073492726,212.0,344.0,203.0,0,0.66,776.0,75.8,17
4134118,33073500723,176.0,303.0,162.0,0,0.629,776.0,75.8,17
4134119,33073508726,141.0,264.0,122.0,0,0.593,776.0,75.8,17
4134120,33073516723,108.0,226.0,82.0,0,0.561,776.0,75.8,17
4134121,33073524722,76.0,190.0,44.0,0,0.525,776.0,75.8,17
4134122,33073532723,47.0,155.0,6.0,0,0.514,776.0,75.8,17
4134123,33073540723,28.0,124.0,-29.0,0,0.528,776.0,75.8,17
4134124,33073548723,9.0,96.0,-62.0,0,0.546,776.0,75.8,17
4134125,33073556723,0.0,73.0,-92.0,0,0.558,776.0,75.8,19
4134126,33073564724,0.0,55.0,-118.0,0,0.561,776.0,75.8,19
4134127,33073572724,0.0,42.0,-140.0,0,0.559,776.0,75.8,19
4134128,33073580723,0.0,32.0,-158.0,0,0.553,776.0,75.8,19
4134129,33073588723,0.0,24.0,-173.0,0,0.548,776.0,75.8,19
4134130,33073596723,0.0,18.0,-184.0,0,0.535,776.0,75.8,19
4134131,33073604723,0.0,14.0,-194.0,0,0.537,776.0,75.8,19
4134132,33073612723,0.0,10.0,-201.0,0,0.526,776.0,75.8,19
4134133,33073620723,0.0,8.0,-206.0,0,0.518,776.0,75.8,19
4134134,33073628723,0.0,6.0,-210.0,0,0.515,776.0,75.8,19
4134135,33073636723,0.0,5.0,-213.0,0,0.511,776.0,75.8,19
4134136,33073644723,0.0,3.0,-215.0,0,0.507,776.0,75.8,19
4134137,33073652727,0.0,3.0,-216.0,0,0.501,776.0,75.8,19
4134138,33073660725,0.0,2.0,-217.0,0,0.501,776.0,75.8,19
4134139,33073668725,0.0,1.0,-217.0,1,0.495,776.0,75.8,19
4134140,33073676723,0.0,1.0,-217.0,0,0.494,776.0,75.8,19
4134141,33073684725,0.0,1.0,-217.0,0,0.494,776.0,75.8,19
4134142,33073692723,0.0,1.0,-216.0,0,0.498,776.0,75.8,19
4134143,33073700723,0.0,0.0,-215.0,0,0.496,776.0,75.8,19
4134144,33073708723,0.0,0.0,-214.0,0,0.495,776.0,75.8,19
4134145,33073716723,0.0,0.0,-213.0,0,0.494,776.0,75.8,19
4134146,33073724727,0.0,0.0,-212.0,0,0.493,776.0,75.8,19
4134147,33073732723,0.0,0.0,-211.0,0,0.492,776.0,75.8,19
4134148,33073740723,0.0,0.0,-209.0,0,0.496,776.0,75.8,19
4134149,33073748723,0.0,0.0,-208.0,0,0.489,776.0,75.8,19
4134150,33073756723,0.0,0.0,-207.0,0,0.488,776.0,75.8,19
4134151,33073764727,0.0,0.0,-206.0,0,0.487,776.0,75.8,19
4134152,33073772723,0.0,0.0,-204.0,0,0.491,776.0,75.8,19
4134153,33073780723,0.0,0.0,-203.0,0,0.485,776.0,75.8,19
4134154,33073788723,0.0,0.0,-202.0,0,0.484,776.0,75.8,19
4134155,33073796725,0.0,0.0,-200.0,0,0.488,776.0,75.8,19
4134156,33073804723,0.0,0.0,-199.0,0,0.482,776.0,75.8,19
4134157,33073812723,0.0,0.0,-198.0,0,0.481,776.0,75.8,19
4134158,33073820723,0.0,0.0,-196.0,0,0.485,776.0,75.8,19
4134159,33073828723,0.0,0.0,-195.0,0,0.478,776.0,75.8,19
4134160,33073836723,6.0,1.0,-193.0,0,0.482,776.0,75.8,17
4134161,33073844724,12.0,4.0,-191.0,0,0.48,776.0,75.8,17
4134162,33073852724,18.0,7.0,-188.0,0,0.483,776.0,75.8,17
4134163,33073860723,27.0,12.0,-184.0,0,0.486,776.0,75.8,17
4134164,33073868723,34.0,17.0,-180.0,0,0.482,776.0,75.8,17
4134165,33073876724,45.0,24.0,-174.0,0,0.488,776.0,75.8,17
4134166,33073884723,54.0,31.0,-168.0,0,0.483,776.0,75.8,17
4134167,33073892724,59.0,38.0,-161.0,0,0.483,776.0,75.8,17
4134168,33073900723,72.0,46.0,-154.0,0,0.477,776.0,75.8,17
4134169,33073908723,74.0,53.0,-147.0,0,0.471,776.0,75.8,17
4134170,33073916722,83.0,60.0,-139.0,0,0.47,776.0,75.8,17
4134171,33073924723,92.0,68.0,-131.0,0,0.462,776.0,75.8,17
4134172,33073932726,99.0,75.0,-123.0,0,0.455,776.0,75.8,17
4134173,33073940726,107.0,83.0,-115.0,0,0.448,776.0,75.8,17
4134174,33073948723,110.0,90.0,-107.0,0,0.442,776.0,75.8,17
4134175,33073956723,113.0,95.0,-100.0,0,0.43,776.0,75.8,17
4134176,33073964726,124.0,102.0,-93.0,0,0.424,776.0,75.8,17
4134177,33073972723,126.0,108.0,-86.0,0,0.418,776.0,75.8,17
4134178,33073980726,130.0,113.0,-79.0,0,0.412,776.0,75.8,17
4134179,33073988723,133.0,118.0,-73.0,0,0.401,776.0,75.8,17
4134180,33073996723,137.0,123.0,-67.0,0,0.396,776.0,75.8,17
4134181,33074004723,138.0,126.0,-62.0,0,0.386,776.0,75.8,17
4134182,33074012723,140.0,130.0,-57.0,0,0.382,776.0,75.8,17
4134183,33074020724,146.0,134.0,-52.0,0,0.378,776.0,75.8,17
4134184,33074028723,155.0,139.0,-47.0,0,0.374,776.0,75.8,17
4134185,33074036724,173.0,147.0,-41.0,0,0.375,776.0,75.8,17
4134186,33074044726,192.0,158.0,-34.0,0,0.375,776.0,75.8,17
4134187,33074052723,223.0,174.0,-24.0,0,0.386,776.0,75.8,17
4134188,33074060725,260.0,195.0,-11.0,0,0.394,776.0,75.8,17
4134189,33074068723,300.0,220.0,5.0,0,0.412,776.0,75.8,17
4134190,33074076724,349.0,251.0,26.0,0,0.458,776.0,75.8,17
4134191,33074084723,403.0,288.0,51.0,0,0.5,776.0,75.8,17
4134192,33074092726,456.0,329.0,80.0,0,0.545,776.0,75.8,17
4134193,33074100723,511.0,373.0,113.0,0,0.591,776.0,75.8,17
4134194,33074108723,565.0,420.0,149.0,0,0.635,776.0,75.8,17
4134195,33074116724,617.0,467.0,188.0,0,0.68,776.0,75.8,17
4134196,33074124724,662.0,515.0,229.0,0,0.72,776.0,75.8,17
4134197,33074132724,702.0,560.0,271.0,0,0.756,776.0,75.8,17
4134198,33074140724,733.0,602.0,311.0,0,0.778,776.0,75.8,17
4134199,33074148724,758.0,640.0,350.0,0,0.798,776.0,75.8,17
4134200,33074156723,777.0,673.0,387.0,0,0.811,776.0,75.8,17
4134201,33074164726,787.0,701.0,420.0,0,0.81,776.0,75.8,17
4134202,33074172725,777.0,719.0,448.0,0,0.799,776.0,75.8,17
4134203,33074180723,766.0,731.0,470.0,0,0.776,776.0,75.8,17
4134204,33074188724,744.0,734.0,486.0,0,0.747,776.0,75.8,17
4134205,33074196723,717.0,730.0,495.0,0,0.709,776.0,75.8,17
4134206,33074204724,684.0,719.0,497.0,0,0.669,776.0,75.8,17
4134207,33074212723,648.0,702.0,493.0,1,0.677,776.0,75.8,17
4134208,33074220724,612.0,680.0,483.0,0,0.705,776.0,75.8,17
4134209,33074228723,572.0,654.0,468.0,0,0.726,776.0,75.8,17
4134210,33074236723,529.0,623.0,447.0,0,0.748,776.0,75.8,17
4134211,33074244723,488.0,591.0,423.0,0,0.751,776.0,75.8,17
4134212,33074252723,446.0,556.0,394.0,0,0.759,776.0,75.8,17
4134213,33074260723,401.0,518.0,363.0,0,0.749,776.0,75.8,17
4134214,33074268724,352.0,478.0,329.0,0,0.738,776.0,75.8,17
4134215,33074276723,308.0,437.0,292.0,0,0.723,776.0,75.8,17
4134216,33074284723,263.0,395.0,253.0,0,0.7,776.0,75.8,17
4134217,33074292727,220.0,352.0,213.0,0,0.671,776.0,75.8,17
4134218,33074300723,179.0,310.0,173.0,0,0.638,776.0,75.8,17
4134219,33074308723,142.0,269.0,132.0,0,0.607,776.0,75.8,17
4134220,33074316726,108.0,230.0,92.0,0,0.571,776.0,75.8,17
4134221,33074324724,78.0,193.0,53.0,0,0.537,776.0,75.8,17
4134222,33074332727,53.0,159.0,15.0,0,0.507,776.0,75.8,17
4134223,33074340725,35.0,129.0,-20.0,0,0.521,776.0,75.8,17
4134224,33074348726,18.0,102.0,-53.0,0,0.539,776.0,75.8,17
4134225,33074356727,4.0,78.0,-83.0,0,0.55,776.0,75.8,17
4134226,33074364723,0.0,59.0,-109.0,0,0.553,776.0,75.8,19
4134227,33074372723,0.0,45.0,-132.0,0,0.557,776.0,75.8,19
4134228,33074380723,0.0,34.0,-150.0,0,0.545,776.0,75.8,19
4134229,33074388723,0.0,26.0,-166.0,0,0.548,776.0,75.8,19
4134230,33074396723,0.0,20.0,-178.0,0,0.535,776.0,75.8,19
4134231,33074404724,0.0,15.0,-188.0,0,0.532,776.0,75.8,19
4134232,33074412723,0.0,11.0,-196.0,0,0.527,776.0,75.8,19
4134233,33074420723,0.0,9.0,-202.0,0,0.52,776.0,75.8,19
4134234,33074428723,2.0,7.0,-206.0,0,0.511,776.0,75.8,17
4134235,33074436728,7.0,7.0,-208.0,0,0.501,776.0,75.8,17
4134236,33074444725,10.0,8.0,-210.0,0,0.502,776.0,75.8,17
4134237,33074452725,12.0,9.0,-210.0,1,0.49,776.0,75.8,17
4134238,33074460723,8.0,9.0,-210.0,0,0.489,776.0,75.8,17
4134239,33074468723,11.0,9.0,-209.0,0,0.493,776.0,75.8,17
4134240,33074476723,11.0,10.0,-208.0,0,0.491,776.0,75.8,17
4134241,33074484723,6.0,9.0,-207.0,0,0.49,776.0,75.8,17
4134242,33074492723,4.0,8.0,-206.0,0,0.488,776.0,75.8,17
4134243,33074500723,3.0,6.0,-206.0,1,0.483,776.0,75.8,17
4134244,33074508723,1.0,5.0,-205.0,0,0.487,776.0,75.8,17
4134245,33074516723,0.0,4.0,-205.0,1,0.481,776.0,75.8,19
4134246,33074524728,0.0,3.0,-205.0,0,0.481,776.0,75.8,19
4134247,33074532724,0.0,2.0,-204.0,0,0.485,776.0,75.8,19
4134248,33074540728,0.0,2.0,-204.0,1,0.48,776.0,75.8,19
4134249,33074548723,0.0,1.0,-203.0,0,0.484,776.0,75.8,19
4134250,33074556725,0.0,1.0,-202.0,0,0.483,776.0,75.8,19
4134251,33074564726,0.0,1.0,-201.0,0,0.482,776.0,75.8,19
4134252,33074572726,0.0,1.0,-200.0,0,0.482,776.0,75.8,19
4134253,33074580725,0.0,0.0,-199.0,0,0.481,776.0,75.8,19
4134254,33074588723,6.0,2.0,-198.0,0,0.48,776.0,75.8,17
4134255,33074596723,11.0,4.0,-196.0,0,0.484,776.0,75.8,17
4134256,33074604723,14.0,6.0,-193.0,0,0.487,776.0,75.8,17
4134257,33074612724,18.0,9.0,-190.0,0,0.484,776.0,75.8,17
4134258,33074620727,28.0,14.0,-187.0,0,0.482,776.0,75.8,17
4134259,33074628727,38.0,20.0,-182.0,0,0.489,776.0,75.8,17
4134260,33074636723,45.0,26.0,-177.0,0,0.484,776.0,75.8,17
4134261,33074644723,55.0,33.0,-170.0,0,0.49,776.0,75.8,17
4134262,33074652726,71.0,42.0,-163.0,0,0.484,776.0,75.8,17
4134263,33074660723,76.0,50.0,-155.0,0,0.483,776.0,75.8,17
4134264,33074668723,86.0,59.0,-147.0,0,0.475,776.0,75.8,17
4134265,33074676723,93.0,67.0,-138.0,0,0.474,776.0,75.8,17
4134266,33074684723,100.0,75.0,-130.0,0,0.46,776.0,75.8,17
4134267,33074692723,112.0,84.0,-121.0,0,0.459,776.0,75.8,17
4134268,33074700723,118.0,92.0,-112.0,0,0.451,776.0,75.8,17
4134269,33074708723,119.0,99.0,-104.0,0,0.438,776.0,75.8,17
4134270,33074716723,125.0,105.0,-96.0,0,0.431,776.0,75.8,17
4134271,33074724727,125.0,110.0,-89.0,0,0.419,776.0,75.8,17
4134272,33074732727,127.0,114.0,-82.0,0,0.413,776.0,75.8,17
4134273,33074740723,131.0,118.0,-77.0,0,0.397,776.0,75.8,17
4134274,33074748724,132.0,122.0,-71.0,0,0.398,776.0,75.8,17
4134275,33074756723,134.0,125.0,-67.0,0,0.383,776.0,75.8,17
4134276,33074764723,127.0,125.0,-63.0,0,0.38,776.0,75.8,17
4134277,33074772723,131.0,127.0,-60.0,0,0.372,776.0,75.8,17
4134278,33074780723,130.0,127.0,-57.0,0,0.37,776.0,75.8,17
4134279,33074788723,132.0,129.0,-55.0,0,0.363,776.0,75.8,17
4134280,33074796723,133.0,130.0,-53.0,0,0.362,776.0,75.8,17
4134281,33074804723,136.0,131.0,-51.0,0,0.36,776.0,75.8,17
4134282,33074812723,148.0,135.0,-48.0,0,0.364,776.0,75.8,17
4134283,33074820723,164.0,142.0,-44.0,0,0.366,776.0,75.8,17
4134284,33074828724,187.0,153.0,-38.0,0,0.373,776.0,75.8,17
4134285,33074836724,221.0,170.0,-29.0,0,0.384,776.0,75.8,17
4134286,33074844724,258.0,191.0,-17.0,0,0.393,776.0,75.8,17
4134287,33074852723,306.0,219.0,0.0,0,0.414,776.0,75.8,17
4134288,33074860723,361.0,253.0,22.0,0,0.46,776.0,75.8,17
4134289,33074868723,418.0,293.0,48.0,0,0.502,776.0,75.8,17
4134290,33074876726,471.0,336.0,79.0,0,0.553,776.0,75.8,17
4134291,33074884723,529.0,383.0,115.0,0,0.605,776.0,75.8,17
4134292,33074892723,578.0,430.0,153.0,0,0.645,776.0,75.8,17
4134293,33074900723,628.0,478.0,193.0,0,0.687,776.0,75.8,17
4134294,33074908723,668.0,524.0,234.0,0,0.724,776.0,75.8,17
4134295,33074916723,707.0,569.0,276.0,0,0.759,776.0,75.8,17
4134296,33074924723,732.0,608.0,316.0,0,0.781,776.0,75.8,17
4134297,33074932723,753.0,643.0,354.0,0,0.797,776.0,75.8,17
4134298,33074940723,759.0,671.0,388.0,0,0.8,776.0,75.8,17
4134299,33074948724,759.0,693.0,418.0,0,0.796,776.0,75.8,17
4134300,33074956724,751.0,707.0,442.0,0,0.776,776.0,75.8,17
4134301,33074964723,731.0,713.0,460.0,0,0.75,776.0,75.8,17
4134302,33074972724,711.0,712.0,472.0,0,0.719,776.0,75.8,17
4134303,33074980724,683.0,705.0,477.0,0,0.679,776.0,75.8,17
4134304,33074988724,648.0,691.0,476.0,1,0.656,776.0,75.8,17
4134305,33074996725,610.0,672.0,469.0,0,0.684,776.0,75.8,17
4134306,33075004724,572.0,647.0,456.0,0,0.71,776.0,75.8,17
4134307,33075012723,532.0,619.0,438.0,0,0.729,776.0,75.8,17
4134308,33075020723,488.0,588.0,416.0,0,0.738,776.0,75.8,17
4134309,33075028726,442.0,552.0,389.0,0,0.747,776.0,75.8,17
4134310,33075036724,396.0,514.0,358.0,0,0.745,776.0,75.8,17
4134311,33075044723,347.0,474.0,324.0,0,0.733,776.0,75.8,17
4134312,33075052726,304.0,433.0,288.0,0,0.714,776.0,75.8,17
4134313,33075060726,258.0,390.0,250.0,0,0.691,776.0,75.8,17
4134314,33075068723,212.0,347.0,210.0,0,0.664,776.0,75.8,17
4134315,33075076723,171.0,304.0,169.0,0,0.633,776.0,75.8,17
4134316,33075084726,134.0,263.0,128.0,0,0.599,776.0,75.8,17
4134317,33075092723,99.0,223.0,87.0,0,0.566,776.0,75.8,17
4134318,33075100723,68.0,186.0,47.0,0,0.532,776.0,75.8,17
4134319,33075108723,43.0,151.0,9.0,0,0.515,776.0,75.8,17
4134320,33075116723,23.0,120.0,-26.0,0,0.53,776.0,75.8,17
4134321,33075124723,1.0,91.0,-60.0,0,0.553,776.0,75.8,17
4134322,33075132724,0.0,69.0,-90.0,0,0.56,776.0,75.8,19
4134323,33075140723,0.0,52.0,-116.0,0,0.563,776.0,75.8,19
4134324,33075148724,0.0,40.0,-138.0,0,0.56,776.0,75.8,19
4134325,33075156723,0.0,30.0,-155.0,0,0.547,776.0,75.8,19
4134326,33075164723,0.0,23.0,-170.0,0,0.548,776.0,75.8,19
4134327,33075172726,0.0,17.0,-181.0,0,0.534,776.0,75.8,19
4134328,33075180724,0.0,13.0,-190.0,0,0.53,776.0,75.8,19
4134329,33075188723,0.0,10.0,-197.0,0,0.524,776.0,75.8,19
4134330,33075196727,0.0,7.0,-203.0,0,0.523,776.0,75.8,19
4134331,33075204723,0.0,6.0,-206.0,0,0.508,776.0,75.8,19
4134332,33075212723,0.0,4.0,-209.0,0,0.51,776.0,75.8,19
4134333,33075220723,0.0,3.0,-211.0,0,0.505,776.0,75.8,19
4134334,33075228723,1.0,3.0,-212.0,0,0.5,776.0,75.8,17
4134335,33075236723,2.0,3.0,-212.0,1,0.494,776.0,75.8,17
4134336,33075244723,1.0,2.0,-212.0,0,0.493,776.0,75.8,17
4134337,33075252727,3.0,2.0,-212.0,0,0.491,776.0,75.8,17
4134338,33075260724,7.0,3.0,-211.0,0,0.495,776.0,75.8,17
4134339,33075268723,5.0,4.0,-210.0,0,0.493,776.0,75.8,17
4134340,33075276723,3.0,4.0,-208.0,0,0.496,776.0,75.8,17
4134341,33075284723,6.0,4.0,-207.0,0,0.489,776.0,75.8,17
4134342,33075292723,1.0,3.0,-206.0,0,0.488,776.0,75.8,17
4134343,33075300727,3.0,3.0,-205.0,0,0.486,776.0,75.8,17
4134344,33075308723,4.0,3.0,-203.0,0,0.49,776.0,75.8,17
4134345,33075316723,6.0,4.0,-202.0,0,0.483,776.0,75.8,17
4134346,33075324723,6.0,5.0,-200.0,0,0.486,776.0,75.8,17
4134347,33075332723,7.0,5.0,-199.0,0,0.48,776.0,75.8,17
4134348,33075340723,5.0,5.0,-197.0,0,0.484,776.0,75.8,17
4134349,33075348723,10.0,6.0,-195.0,0,0.482,776.0,75.8,17
4134350,33075356723,10.0,7.0,-193.0,0,0.48,776.0,75.8,17
4134351,33075364723,11.0,8.0,-191.0,0,0.478,776.0,75.8,17
4134352,33075372727,15.0,10.0,-189.0,0,0.476,776.0,75.8,17
4134353,33075380723,19.0,12.0,-187.0,0,0.475,776.0,75.8,17
4134354,33075388723,23.0,15.0,-184.0,0,0.478,776.0,75.8,17
4134355,33075396726,26.0,17.0,-180.0,0,0.48,776.0,75.8,17
4134356,33075404726,30.0,20.0,-177.0,0,0.472,776.0,75.8,17
4134357,33075412723,36.0,24.0,-173.0,0,0.474,776.0,75.8,17
4134358,33075420722,41.0,28.0,-169.0,0,0.471,776.0,75.8,17
4134359,33075428723,49.0,33.0,-164.0,0,0.472,776.0,75.8,17
4134360,33075436726,56.0,39.0,-159.0,0,0.468,776.0,75.8,17
4134361,33075444723,62.0,44.0,-153.0,0,0.468,776.0,75.8,17
4134362,33075452723,67.0,50.0,-147.0,0,0.463,776.0,75.8,17
4134363,33075460726,72.0,55.0,-142.0,0,0.453,776.0,75.8,17
4134364,33075468725,78.0,61.0,-135.0,0,0.459,776.0,75.8,17
4134365,33075476725,83.0,66.0,-129.0,0,0.447,776.0,75.8,17
4134366,33075484723,95.0,73.0,-123.0,0,0.442,776.0,75.8,17
4134367,33075492725,100.0,80.0,-116.0,0,0.442,776.0,75.8,17
4134368,33075500728,107.0,86.0,-109.0,0,0.436,776.0,75.8,17
4134369,33075508723,108.0,92.0,-103.0,0,0.425,776.0,75.8,17
4134370,33075516723,116.0,97.0,-96.0,0,0.425,776.0,75.8,17
4134371,33075524724,121.0,103.0,-90.0,0,0.414,776.0,75.8,17
4134372,33075532724,123.0,108.0,-84.0,0,0.409,776.0,75.8,17
4134373,33075540728,127.0,113.0,-78.0,0,0.404,776.0,75.8,17
4134374,33075548723,130.0,117.0,-72.0,0,0.399,776.0,75.8,17
4134375,33075556725,135.0,121.0,-67.0,0,0.389,776.0,75.8,17
4134376,33075564726,134.0,124.0,-62.0,0,0.385,776.0,75.8,17
4134377,33075572726,137.0,127.0,-58.0,0,0.376,776.0,75.8,17
4134378,33075580726,142.0,131.0,-54.0,0,0.373,776.0,75.8,17
4134379,33075588723,145.0,134.0,-50.0,0,0.37,776.0,75.8,17
4134380,33075596723,151.0,138.0,-46.0,0,0.367,776.0,75.8,17
4134381,33075604724,161.0,144.0,-41.0,0,0.368,776.0,75.8,17
4134382,33075612723,177.0,152.0,-35.0,0,0.37,776.0,75.8,17
4134383,33075620724,207.0,165.0,-28.0,0,0.37,776.0,75.8,17
4134384,33075628723,237.0,183.0,-17.0,0,0.386,776.0,75.8,17
4134385,33075636724,278.0,206.0,-3.0,0,0.396,776.0,75.8,17
4134386,33075644725,324.0,234.0,15.0,0,0.434,776.0,75.8,17
4134387,33075652723,375.0,269.0,38.0,0,0.482,776.0,75.8,17
4134388,33075660723,427.0,307.0,64.0,0,0.52,776.0,75.8,17
4134389,33075668725,484.0,350.0,95.0,0,0.571,776.0,75.8,17
4134390,33075676725,539.0,396.0,130.0,0,0.619,776.0,75.8,17
4134391,33075684723,594.0,444.0,169.0,0,0.669,776.0,75.8,17
4134392,33075692723,645.0,493.0,209.0,0,0.707,776.0,75.8,17
4134393,33075700724,690.0,540.0,251.0,0,0.747,776.0,75.8,17
4134394,33075708723,727.0,586.0,293.0,0,0.778,776.0,75.8,17
4134395,33075716724,763.0,629.0,335.0,0,0.805,776.0,75.8,17
4134396,33075724723,788.0,667.0,375.0,0,0.821,776.0,75.8,17
4134397,33075732724,804.0,700.0,412.0,0,0.828,776.0,75.8,17
4134398,33075740723,808.0,727.0,444.0,0,0.821,776.0,75.8,17
4134399,33075748723,802.0,745.0,472.0,0,0.812,776.0,75.8,17
4134400,33075756725,784.0,754.0,494.0,0,0.788,776.0,75.8,17
4134401,33075764723,757.0,755.0,508.0,0,0.746,776.0,75.8,17
4134402,33075772723,729.0,749.0,516.0,0,0.713,776.0,75.8,17
4134403,33075780726,691.0,735.0,516.0,1,0.668,776.0,75.8,17
4134404,33075788723,656.0,716.0,510.0,0,0.696,776.0,75.8,17
4134405,33075796726,612.0,690.0,497.0,0,0.729,776.0,75.8,17
4134406,33075804723,571.0,662.0,479.0,0,0.749,776.0,75.8,17
4134407,33075812723,526.0,629.0,456.0,0,0.764,776.0,75.8,17
4134408,33075820723,483.0,593.0,429.0,0,0.769,776.0,75.8,17
4134409,33075828723,439.0,556.0,398.0,0,0.769,776.0,75.8,17
4134410,33075836723,394.0,517.0,365.0,0,0.755,776.0,75.8,17
4134411,33075844723,347.0,476.0,328.0,0,0.744,776.0,75.8,17
4134412,33075852724,302.0,433.0,290.0,0,0.718,776.0,75.8,17
4134413,33075860726,253.0,390.0,250.0,0,0.692,776.0,75.8,17
4134414,33075868723,212.0,347.0,209.0,0,0.661,776.0,75.8,17
4134415,33075876723,171.0,304.0,167.0,0,0.628,776.0,75.8,17
4134416,33075884723,135.0,263.0,126.0,0,0.591,776.0,75.8,17
4134417,33075892723,100.0,224.0,85.0,0,0.558,776.0,75.8,17
4134418,33075900724,72.0,187.0,45.0,0,0.524,776.0,75.8,17
4134419,33075908724,40.0,151.0,7.0,0,0.518,776.0,75.8,17
4134420,33075916723,15.0,118.0,-30.0,0,0.543,776.0,75.8,17
4134421,33075924723,0.0,90.0,-64.0,0,0.558,776.0,75.8,19
4134422,33075932723,0.0,68.0,-94.0,0,0.566,776.0,75.8,19
4134423,33075940723,0.0,51.0,-120.0,0,0.568,776.0,75.8,19
4134424,33075948724,0.0,39.0,-142.0,0,0.566,776.0,75.8,19
4134425,33075956724,0.0,29.0,-159.0,0,0.553,776.0,75.8,19
4134426,33075964725,0.0,22.0,-174.0,0,0.554,776.0,75.8,19
4134427,33075972725,0.0,17.0,-185.0,0,0.54,776.0,75.8,19
4134428,33075980723,0.0,13.0,-194.0,0,0.535,776.0,75.8,19
4134429,33075988723,0.0,10.0,-201.0,0,0.529,776.0,75.8,19
4134430,33075996727,0.0,7.0,-206.0,0,0.522,776.0,75.8,19
4134431,33076004726,0.0,6.0,-210.0,0,0.519,776.0,75.8,19
4134432,33076012724,0.0,4.0,-212.0,0,0.509,776.0,75.8,19
4134433,33076020723,0.0,3.0,-214.0,0,0.51,776.0,75.8,19
4134434,33076028723,0.0,2.0,-215.0,0,0.505,776.0,75.8,19
4134435,33076036723,0.0,2.0,-216.0,0,0.504,776.0,75.8,19
4134436,33076044723,0.0,1.0,-216.0,1,0.498,776.0,75.8,19
4134437,33076052722,0.0,1.0,-216.0,0,0.497,776.0,75.8,19
4134438,33076060723,0.0,1.0,-215.0,0,0.5,776.0,75.8,19
4134439,33076068723,0.0,1.0,-214.0,0,0.498,776.0,75.8,19
4134440,33076076724,0.0,0.0,-214.0,1,0.492,776.0,75.8,19
4134441,33076084723,0.0,0.0,-213.0,0,0.495,776.0,75.8,19
4134442,33076092723,0.0,0.0,-212.0,0,0.494,776.0,75.8,19
4134443,33076100725,0.0,0.0,-210.0,0,0.496,776.0,75.8,19
4134444,33076108726,0.0,0.0,-209.0,0,0.489,776.0,75.8,19
4134445,33076116726,0.0,0.0,-208.0,0,0.488,776.0,75.8,19
4134446,33076124723,0.0,0.0,-207.0,0,0.487,776.0,75.8,19
4134447,33076132726,0.0,0.0,-205.0,0,0.49,776.0,75.8,19
4134448,33076140724,0.0,0.0,-204.0,0,0.483,776.0,75.8,19
4134449,33076148724,0.0,0.0,-203.0,0,0.482,776.0,75.8,19
4134450,33076156724,2.0,1.0,-201.0,0,0.486,776.0,75.8,17
4134451,33076164724,6.0,2.0,-200.0,0,0.479,776.0,75.8,17
4134452,33076172723,9.0,4.0,-197.0,0,0.488,776.0,75.8,17
4134453,33076180723,11.0,5.0,-195.0,0,0.48,776.0,75.8,17
4134454,33076188727,15.0,8.0,-192.0,0,0.483,776.0,75.8,17
4134455,33076196722,20.0,11.0,-189.0,0,0.481,776.0,75.8,17
4134456,33076204726,20.0,13.0,-186.0,0,0.478,776.0,75.8,17
4134457,33076212723,25.0,16.0,-182.0,0,0.48,776.0,75.8,17
4134458,33076220724,28.0,19.0,-179.0,0,0.472,776.0,75.8,17
4134459,33076228726,38.0,23.0,-175.0,0,0.474,776.0,75.8,17
4134460,33076236723,43.0,28.0,-170.0,0,0.476,776.0,75.8,17
4134461,33076244723,47.0,33.0,-165.0,0,0.471,776.0,75.8,17
4134462,33076252725,52.0,37.0,-160.0,0,0.467,776.0,75.8,17
4134463,33076260724,62.0,43.0,-154.0,0,0.468,776.0,75.8,17
4134464,33076268723,68.0,49.0,-148.0,0,0.462,776.0,75.8,17
4134465,33076276723,77.0,56.0,-142.0,0,0.457,776.0,75.8,17
4134466,33076284723,85.0,63.0,-135.0,0,0.457,776.0,75.8,17
4134467,33076292724,91.0,70.0,-128.0,0,0.451,776.0,75.8,17
4134468,33076300726,91.0,75.0,-121.0,0,0.445,776.0,75.8,17
4134469,33076308723,100.0,81.0,-115.0,0,0.433,776.0,75.8,17
4134470,33076316723,104.0,87.0,-108.0,0,0.433,776.0,75.8,17
4134471,33076324723,107.0,92.0,-102.0,0,0.422,776.0,75.8,17
4134472,33076332723,112.0,97.0,-96.0,0,0.417,776.0,75.8,17
4134473,33076340723,113.0,101.0,-90.0,0,0.412,776.0,75.8,17
4134474,33076348724,120.0,105.0,-85.0,0,0.402,776.0,75.8,17
4134475,33076356724,120.0,109.0,-80.0,0,0.398,776.0,75.8,17
4134476,33076364723,124.0,112.0,-75.0,0,0.394,776.0,75.8,17
4134477,33076372723,127.0,116.0,-70.0,0,0.39,776.0,75.8,17
4134478,33076380724,133.0,120.0,-66.0,0,0.381,776.0,75.8,17
4134479,33076388724,144.0,126.0,-61.0,0,0.383,776.0,75.8,17
4134480,33076396723,144.0,130.0,-56.0,0,0.379,776.0,75.8,17
4134481,33076404723,148.0,135.0,-51.0,0,0.375,776.0,75.8,17
4134482,33076412725,162.0,141.0,-46.0,0,0.371,776.0,75.8,17
4134483,33076420724,174.0,149.0,-39.0,0,0.377,776.0,75.8,17
4134484,33076428724,198.0,161.0,-32.0,0,0.372,776.0,75.8,17
4134485,33076436723,226.0,177.0,-22.0,0,0.382,776.0,75.8,17
4134486,33076444724,261.0,197.0,-9.0,0,0.391,776.0,75.8,17
4134487,33076452723,301.0,222.0,8.0,0,0.424,776.0,75.8,17
4134488,33076460726,351.0,254.0,28.0,0,0.458,776.0,75.8,17
4134489,33076468726,401.0,289.0,53.0,0,0.507,776.0,75.8,17
4134490,33076476723,459.0,330.0,82.0,0,0.552,776.0,75.8,17
4134491,33076484728,511.0,374.0,115.0,0,0.599,776.0,75.8,17
4134492,33076492723,563.0,420.0,151.0,0,0.644,776.0,75.8,17
4134493,33076500726,612.0,467.0,189.0,0,0.685,776.0,75.8,17
4134494,33076508726,659.0,513.0,230.0,0,0.729,776.0,75.8,17
4134495,33076516724,698.0,558.0,270.0,0,0.757,776.0,75.8,17
4134496,33076524724,732.0,600.0,311.0,0,0.789,776.0,75.8,17
4134497,33076532725,756.0,638.0,350.0,0,0.806,776.0,75.8,17
4134498,33076540725,776.0,671.0,386.0,0,0.814,776.0,75.8,17
4134499,33076548722,780.0,698.0,419.0,0,0.817,776.0,75.8,17
4134500,33076556723,775.0,716.0,446.0,0,0.8,776.0,75.8,17
4134501,33076564723,760.0,727.0,468.0,0,0.781,776.0,75.8,17
4134502,33076572723,741.0,730.0,483.0,0,0.746,776.0,75.8,17
4134503,33076580723,713.0,726.0,492.0,0,0.713,776.0,75.8,17
4134504,33076588726,684.0,716.0,495.0,0,0.679,776.0,75.8,17
4134505,33076596726,649.0,700.0,491.0,1,0.681,776.0,75.8,17
4134506,33076604724,614.0,679.0,482.0,0,0.704,776.0,75.8,17
4134507,33076612726,573.0,653.0,467.0,0,0.73,776.0,75.8,17
4134508,33076620723,532.0,624.0,447.0,0,0.748,776.0,75.8,17
4134509,33076628723,485.0,590.0,422.0,0,0.76,776.0,75.8,17
4134510,33076636723,444.0,555.0,394.0,0,0.758,776.0,75.8,17
4134511,33076644723,395.0,516.0,362.0,0,0.754,776.0,75.8,17
4134512,33076652724,349.0,476.0,328.0,0,0.738,776.0,75.8,17
4134513,33076660724,304.0,434.0,291.0,0,0.721,776.0,75.8,17
4134514,33076668724,260.0,392.0,252.0,0,0.696,776.0,75.8,17
4134515,33076676727,220.0,350.0,212.0,0,0.665,776.0,75.8,17
4134516,33076684723,179.0,309.0,171.0,0,0.633,776.0,75.8,17
4134517,33076692727,146.0,269.0,131.0,0,0.596,776.0,75.8,17
4134518,33076700724,107.0,230.0,91.0,0,0.563,776.0,75.8,17
4134519,33076708726,81.0,194.0,53.0,0,0.526,776.0,75.8,17
4134520,33076716723,57.0,161.0,16.0,0,0.508,776.0,75.8,17
4134521,33076724723,38.0,131.0,-19.0,0,0.527,776.0,75.8,17
4134522,33076732727,20.0,104.0,-51.0,0,0.54,776.0,75.8,17
4134523,33076740723,6.0,80.0,-81.0,0,0.556,776.0,75.8,17
4134524,33076748723,0.0,61.0,-107.0,0,0.558,776.0,75.8,19
4134525,33076756727,0.0,46.0,-130.0,0,0.562,776.0,75.8,19
4134526,33076764725,0.0,35.0,-149.0,0,0.556,776.0,75.8,19
4134527,33076772725,0.0,26.0,-165.0,0,0.553,776.0,75.8,19
4134528,33076780724,0.0,20.0,-177.0,0,0.54,776.0,75.8,19
4134529,33076788723,0.0,15.0,-187.0,0,0.536,776.0,75.8,19
4134530,33076796725,4.0,12.0,-195.0,0,0.531,776.0,75.8,17
4134531,33076804726,6.0,11.0,-200.0,0,0.518,776.0,75.8,17
4134532,33076812723,10.0,11.0,-203.0,0,0.509,776.0,75.8,17
4134533,33076820723,16.0,12.0,-205.0,0,0.504,776.0,75.8,17
4134534,33076828725,15.0,13.0,-206.0,0,0.499,776.0,75.8,17
4134535,33076836726,20.0,14.0,-205.0,1,0.497,776.0,75.8,17
4134536,33076844723,22.0,16.0,-204.0,0,0.495,776.0,75.8,17
4134537,33076852727,24.0,18.0,-202.0,0,0.498,776.0,75.8,17
4134538,33076860723,30.0,21.0,-200.0,0,0.495,776.0,75.8,17
4134539,33076868723,24.0,22.0,-198.0,0,0.492,776.0,75.8,17
4134540,33076876724,25.0,23.0,-195.0,0,0.494,776.0,75.8,17
4134541,33076884723,28.0,24.0,-193.0,0,0.485,776.0,75.8,17
4134542,33076892724,28.0,25.0,-191.0,0,0.483,776.0,75.8,17
4134543,33076900727,26.0,25.0,-189.0,0,0.48,776.0,75.8,17
4134544,33076908726,21.0,24.0,-187.0,0,0.478,776.0,75.8,17
4134545,33076916724,24.0,24.0,-186.0,0,0.471,776.0,75.8,17
4134546,33076924723,17.0,22.0,-185.0,0,0.47,776.0,75.8,17
4134547,33076932723,21.0,22.0,-184.0,0,0.468,776.0,75.8,17
4134548,33076940723,20.0,22.0,-183.0,0,0.467,776.0,75.8,17
4134549,33076948727,18.0,21.0,-182.0,0,0.466,776.0,75.8,17
4134550,33076956723,16.0,20.0,-182.0,1,0.461,776.0,75.8,17
4134551,33076964723,13.0,18.0,-182.0,0,0.461,776.0,75.8,17
4134552,33076972725,16.0,17.0,-181.0,0,0.465,776.0,75.8,17
4134553,33076980723,16.0,17.0,-181.0,1,0.46,776.0,75.8,17
4134554,33076988727,20.0,18.0,-180.0,0,0.465,776.0,75.8,17
4134555,33076996723,23.0,19.0,-178.0,0,0.468,776.0,75.8,17
4134556,33077004723,25.0,21.0,-177.0,0,0.462,776.0,75.8,17
4134557,33077012723,27.0,22.0,-175.0,0,0.466,776.0,75.8,17
4134558,33077020724,30.0,24.0,-172.0,0,0.469,776.0,75.8,17
4134559,33077028723,37.0,27.0,-170.0,0,0.462,776.0,75.8,17
4134560,33077036728,44.0,31.0,-166.0,0,0.47,776.0,75.8,17
4134561,33077044724,51.0,36.0,-162.0,0,0.466,776.0,75.8,17
4134562,33077052724,54.0,40.0,-157.0,0,0.468,776.0,75.8,17
4134563,33077060723,60.0,45.0,-153.0,0,0.458,776.0,75.8,17
4134564,33077068725,61.0,49.0,-148.0,0,0.46,776.0,75.8,17
4134565,33077076723,69.0,54.0,-143.0,0,0.455,776.0,75.8,17
4134566,33077084723,76.0,59.0,-137.0,0,0.456,776.0,75.8,17
4134567,33077092723,80.0,64.0,-132.0,0,0.446,776.0,75.8,17
4134568,33077100723,82.0,69.0,-126.0,0,0.446,776.0,75.8,17
4134569,33077108723,88.0,73.0,-121.0,0,0.436,776.0,75.8,17
4134570,33077116723,92.0,78.0,-116.0,0,0.432,776.0,75.8,17
4134571,33077124725,96.0,82.0,-110.0,0,0.432,776.0,75.8,17
4134572,33077132724,101.0,87.0,-105.0,0,0.422,776.0,75.8,17
4134573,33077140723,107.0,92.0,-100.0,0,0.418,776.0,75.8,17
4134574,33077148726,108.0,96.0,-95.0,0,0.414,776.0,75.8,17
4134575,33077156723,109.0,99.0,-90.0,0,0.409,776.0,75.8,17
4134576,33077164723,116.0,103.0,-85.0,0,0.405,776.0,75.8,17
4134577,33077172723,118.0,107.0,-81.0,0,0.396,776.0,75.8,17
4134578,33077180723,123.0,111.0,-76.0,0,0.398,776.0,75.8,17
4134579,33077188723,131.0,116.0,-72.0,0,0.389,776.0,75.8,17
4134580,33077196723,145.0,123.0,-66.0,0,0.396,776.0,75.8,17
4134581,33077204723,163.0,132.0,-59.0,0,0.396,776.0,75.8,17
4134582,33077212723,188.0,146.0,-51.0,0,0.395,776.0,75.8,17
4134583,33077220723,220.0,164.0,-39.0,0,0.41,776.0,75.8,17
4134584,33077228723,258.0,187.0,-25.0,0,0.41,776.0,75.8,17
4134585,33077236723,305.0,215.0,-6.0,0,0.425,776.0,75.8,17
4134586,33077244727,353.0,249.0,17.0,0,0.466,776.0,75.8,17
4134587,33077252725,404.0,286.0,43.0,0,0.504,776.0,75.8,17
4134588,33077260726,460.0,328.0,74.0,0,0.555,776.0,75.8,17
4134589,33077268725,516.0,374.0,109.0,0,0.603,776.0,75.8,17
4134590,33077276724,566.0,420.0,146.0,0,0.644,776.0,75.8,17
4134591,33077284723,611.0,467.0,186.0,0,0.69,776.0,75.8,17
4134592,33077292723,655.0,512.0,227.0,0,0.728,776.0,75.8,17
4134593,33077300723,688.0,555.0,267.0,0,0.756,776.0,75.8,17
4134594,33077308723,710.0,593.0,306.0,0,0.78,776.0,75.8,17
4134595,33077316723,735.0,627.0,343.0,0,0.796,776.0,75.8,17
4134596,33077324723,746.0,656.0,376.0,0,0.798,776.0,75.8,17
4134597,33077332727,746.0,678.0,406.0,0,0.799,776.0,75.8,17
4134598,33077340723,736.0,692.0,430.0,0,0.779,776.0,75.8,17
4134599,33077348723,719.0,698.0,448.0,0,0.752,776.0,75.8,17
4134600,33077356727,700.0,699.0,460.0,0,0.721,776.0,75.8,17
4134601,33077364726,673.0,693.0,466.0,0,0.687,776.0,75.8,17
4134602,33077372723,639.0,680.0,466.0,1,0.653,776.0,75.8,17
4134603,33077380725,604.0,661.0,460.0,0,0.681,776.0,75.8,17
4134604,33077388723,568.0,639.0,448.0,0,0.709,776.0,75.8,17
4134605,33077396727,525.0,611.0,431.0,0,0.728,776.0,75.8,17
4134606,33077404723,484.0,580.0,409.0,0,0.742,776.0,75.8,17
4134607,33077412724,445.0,547.0,384.0,0,0.742,776.0,75.8,17
4134608,33077420723,401.0,512.0,355.0,0,0.742,776.0,75.8,17
4134609,33077428723,354.0,474.0,323.0,0,0.732,776.0,75.8,17
4134610,33077436724,309.0,434.0,288.0,0,0.716,776.0,75.8,17
4134611,33077444726,267.0,393.0,252.0,0,0.69,776.0,75.8,17
4134612,33077452723,224.0,352.0,213.0,0,0.668,776.0,75.8,17
4134613,33077460727,183.0,311.0,174.0,0,0.633,776.0,75.8,17
4134614,33077468724,147.0,271.0,135.0,0,0.6,776.0,75.8,17
4134615,33077476727,112.0,233.0,96.0,0,0.567,776.0,75.8,17
4134616,33077484723,79.0,195.0,57.0,0,0.536,776.0,75.8,17
4134617,33077492723,52.0,161.0,20.0,0,0.504,776.0,75.8,17
4134618,33077500727,28.0,129.0,-16.0,0,0.528,776.0,75.8,17
4134619,33077508723,16.0,101.0,-49.0,0,0.542,776.0,75.8,17
4134620,33077516723,4.0,78.0,-79.0,0,0.554,776.0,75.8,17
4134621,33077524724,0.0,59.0,-105.0,0,0.557,776.0,75.8,19
4134622,33077532724,0.0,45.0,-128.0,0,0.561,776.0,75.8,19
4134623,33077540723,0.0,34.0,-147.0,0,0.555,776.0,75.8,19
4134624,33077548723,0.0,26.0,-162.0,0,0.545,776.0,75.8,19
4134625,33077556728,0.0,19.0,-175.0,0,0.544,776.0,75.8,19
4134626,33077564723,0.0,15.0,-185.0,0,0.535,776.0,75.8,19
4134627,33077572723,0.0,11.0,-192.0,0,0.523,776.0,75.8,19
4134628,33077580726,0.0,8.0,-198.0,0,0.522,776.0,75.8,19
4134629,33077588723,4.0,7.0,-202.0,0,0.514,776.0,75.8,17
4134630,33077596723,9.0,8.0,-204.0,0,0.504,776.0,75.8,17
4134631,33077604724,14.0,9.0,-205.0,0,0.498,776.0,75.8,17
4134632,33077612725,17.0,11.0,-205.0,1,0.492,776.0,75.8,17
4134633,33077620724,17.0,13.0,-204.0,0,0.495,776.0,75.8,17
4134634,33077628723,22.0,15.0,-202.0,0,0.498,776.0,75.8,17
4134635,33077636724,26.0,18.0,-200.0,0,0.495,776.0,75.8,17
4134636,33077644723,27.0,20.0,-197.0,0,0.496,776.0,75.8,17
4134637,33077652724,26.0,21.0,-194.0,0,0.493,776.0,75.8,17
4134638,33077660723,26.0,22.0,-192.0,0,0.485,776.0,75.8,17
4134639,33077668724,27.0,24.0,-189.0,0,0.487,776.0,75.8,17
4134640,33077676723,26.0,24.0,-187.0,0,0.479,776.0,75.8,17
4134641,33077684726,28.0,25.0,-185.0,0,0.476,776.0,75.8,17
4134642,33077692726,26.0,25.0,-183.0,0,0.474,776.0,75.8,17
4134643,33077700726,22.0,25.0,-181.0,0,0.472,776.0,75.8,17
4134644,33077708723,18.0,23.0,-180.0,0,0.465,776.0,75.8,17
4134645,33077716723,17.0,21.0,-179.0,0,0.464,776.0,75.8,17
4134646,33077724727,15.0,20.0,-179.0,1,0.458,776.0,75.8,17
4134647,33077732724,17.0,19.0,-179.0,0,0.458,776.0,75.8,17
4134648,33077740726,16.0,18.0,-178.0,0,0.463,776.0,75.8,17
4134649,33077748726,14.0,17.0,-178.0,1,0.457,776.0,75.8,17
4134650,33077756726,14.0,17.0,-178.0,0,0.457,776.0,75.8,17
4134651,33077764726,20.0,17.0,-177.0,0,0.462,776.0,75.8,17
4134652,33077772724,23.0,19.0,-176.0,0,0.461,776.0,75.8,17
4134653,33077780727,26.0,21.0,-174.0,0,0.465,776.0,75.8,17
4134654,33077788726,26.0,22.0,-172.0,0,0.464,776.0,75.8,17
4134655,33077796726,33.0,25.0,-169.0,0,0.467,776.0,75.8,17
4134656,33077804723,36.0,27.0,-167.0,0,0.459,776.0,75.8,17
4134657,33077812723,37.0,30.0,-163.0,0,0.467,776.0,75.8,17
4134658,33077820723,44.0,33.0,-160.0,0,0.459,776.0,75.8,17
4134659,33077828723,48.0,37.0,-156.0,0,0.461,776.0,75.8,17
4134660,33077836723,52.0,40.0,-152.0,0,0.458,776.0,75.8,17
4134661,33077844724,60.0,45.0,-148.0,0,0.454,776.0,75.8,17
4134662,33077852723,65.0,50.0,-143.0,0,0.456,776.0,75.8,17
4134663,33077860723,72.0,55.0,-138.0,0,0.451,776.0,75.8,17
4134664,33077868724,80.0,61.0,-132.0,0,0.452,776.0,75.8,17
4134665,33077876724,85.0,67.0,-126.0,0,0.447,776.0,75.8,17
4134666,33077884723,88.0,72.0,-120.0,0,0.441,776.0,75.8,17
4134667,33077892723,92.0,77.0,-115.0,0,0.431,776.0,75.8,17
4134668,33077900727,99.0,82.0,-109.0,0,0.432,776.0,75.8,17
4134669,33077908724,104.0,88.0,-103.0,0,0.426,776.0,75.8,17
4134670,33077916723,108.0,93.0,-97.0,0,0.421,776.0,75.8,17
4134671,33077924723,114.0,98.0,-91.0,0,0.416,776.0,75.8,17
4134672,33077932723,113.0,101.0,-86.0,0,0.406,776.0,75.8,17
4134673,33077940723,120.0,106.0,-81.0,0,0.402,776.0,75.8,17
4134674,33077948725,123.0,110.0,-76.0,0,0.397,776.0,75.8,17
4134675,33077956723,125.0,114.0,-71.0,0,0.393,776.0,75.8,17
4134676,33077964723,131.0,118.0,-67.0,0,0.384,776.0,75.8,17
4134677,33077972723,140.0,123.0,-62.0,0,0.386,776.0,75.8,17
4134678,33077980723,151.0,130.0,-56.0,0,0.387,776.0,75.8,17
4134679,33077988723,164.0,138.0,-50.0,0,0.382,776.0,75.8,17
4134680,33077996726,189.0,151.0,-42.0,0,0.388,776.0,75.8,17
4134681,33078004725,220.0,167.0,-31.0,0,0.397,776.0,75.8,17
4134682,33078012725,260.0,190.0,-17.0,0,0.404,776.0,75.8,17
4134683,33078020723,304.0,218.0,1.0,0,0.426,776.0,75.8,17
4134684,33078028723,356.0,251.0,23.0,0,0.467,776.0,75.8,17
4134685,33078036726,412.0,290.0,50.0,0,0.516,776.0,75.8,17
4134686,33078044725,471.0,334.0,81.0,0,0.563,776.0,75.8,17
4134687,33078052724,527.0,381.0,116.0,0,0.611,776.0,75.8,17
4134688,33078060724,579.0,429.0,155.0,0,0.661,776.0,75.8,17
4134689,33078068724,629.0,477.0,196.0,0,0.704,776.0,75.8,17
4134690,33078076725,680.0,526.0,238.0,0,0.742,776.0,75.8,17
4134691,33078084723,724.0,574.0,282.0,0,0.781,776.0,75.8,17
4134692,33078092723,760.0,619.0,325.0,0,0.807,776.0,75.8,17
4134693,33078100723,788.0,660.0,366.0,0,0.825,776.0,75.8,17
4134694,33078108723,805.0,695.0,405.0,0,0.837,776.0,75.8,17
4134695,33078116723,811.0,723.0,439.0,0,0.832,776.0,75.8,17
4134696,33078124724,811.0,745.0,469.0,0,0.825,776.0,75.8,17
4134697,33078132723,796.0,757.0,493.0,0,0.803,776.0,75.8,17
4134698,33078140724,766.0,759.0,510.0,0,0.768,776.0,75.8,17
4134699,33078148723,742.0,755.0,519.0,0,0.723,776.0,75.8,17
4134700,33078156725,707.0,743.0,522.0,0,0.688,776.0,75.8,17
4134701,33078164723,675.0,727.0,518.0,1,0.691,776.0,75.8,17
4134702,33078172723,638.0,705.0,508.0,0,0.719,776.0,75.8,17
4134703,33078180723,596.0,679.0,492.0,0,0.746,776.0,75.8,17
4134704,33078188723,561.0,650.0,472.0,0,0.759,776.0,75.8,17
4134705,33078196723,513.0,617.0,448.0,0,0.768,776.0,75.8,17
4134706,33078204723,474.0,582.0,420.0,0,0.772,776.0,75.8,17
4134707,33078212728,430.0,545.0,389.0,0,0.766,776.0,75.8,17
4134708,33078220723,383.0,506.0,354.0,0,0.759,776.0,75.8,17
4134709,33078228724,341.0,466.0,318.0,0,0.736,776.0,75.8,17
4134710,33078236723,299.0,426.0,281.0,0,0.711,776.0,75.8,17
4134711,33078244725,251.0,383.0,241.0,0,0.688,776.0,75.8,17
4134712,33078252727,208.0,341.0,201.0,0,0.654,776.0,75.8,17
4134713,33078260723,171.0,300.0,160.0,0,0.622,776.0,75.8,17
4134714,33078268724,138.0,260.0,120.0,0,0.585,776.0,75.8,17
4134715,33078276723,108.0,223.0,80.0,0,0.553,776.0,75.8,17
4134716,33078284723,76.0,188.0,42.0,0,0.517,776.0,75.8,17
4134717,33078292723,53.0,155.0,6.0,0,0.512,776.0,75.8,17
4134718,33078300724,28.0,124.0,-29.0,0,0.535,776.0,75.8,17
4134719,33078308723,19.0,99.0,-61.0,0,0.549,776.0,75.8,17
4134720,33078316723,2.0,75.0,-90.0,0,0.559,776.0,75.8,17
4134721,33078324723,0.0,57.0,-115.0,0,0.561,776.0,75.8,19
4134722,33078332723,0.0,43.0,-137.0,0,0.564,776.0,75.8,19
4134723,33078340723,0.0,33.0,-156.0,0,0.563,776.0,75.8,19
4134724,33078348724,0.0,25.0,-170.0,0,0.546,776.0,75.8,19
4134725,33078356723,0.0,19.0,-182.0,0,0.545,776.0,75.8,19
4134726,33078364723,0.0,14.0,-192.0,0,0.541,776.0,75.8,19
4134727,33078372723,0.0,11.0,-199.0,0,0.53,776.0,75.8,19
4134728,33078380725,0.0,8.0,-205.0,0,0.529,776.0,75.8,19
4134729,33078388726,0.0,6.0,-209.0,0,0.52,776.0,75.8,19
4134730,33078396725,0.0,5.0,-212.0,0,0.517,776.0,75.8,19
4134731,33078404723,0.0,4.0,-214.0,0,0.512,776.0,75.8,19
4134732,33078412723,0.0,3.0,-215.0,0,0.506,776.0,75.8,19
4134733,33078420723,0.0,2.0,-216.0,0,0.506,776.0,75.8,19
4134734,33078428723,0.0,2.0,-216.0,1,0.5,776.0,75.8,19
4134735,33078436723,0.0,1.0,-216.0,0,0.499,776.0,75.8,19
4134736,33078444723,0.0,1.0,-215.0,0,0.502,776.0,75.8,19
4134737,33078452724,0.0,1.0,-215.0,1,0.496,776.0,75.8,19
4134738,33078460724,0.0,1.0,-214.0,0,0.499,776.0,75.8,19
4134739,33078468723,0.0,0.0,-213.0,0,0.497,776.0,75.8,19
4134740,33078476723,0.0,0.0,-212.0,0,0.496,776.0,75.8,19
4134741,33078484723,0.0,0.0,-211.0,0,0.494,776.0,75.8,19
4134742,33078492723,0.0,0.0,-210.0,0,0.492,776.0,75.8,19
4134743,33078500723,0.0,0.0,-208.0,0,0.496,776.0,75.8,19
4134744,33078508723,0.0,0.0,-207.0,0,0.489,776.0,75.8,19
4134745,33078516723,0.0,0.0,-206.0,0,0.488,776.0,75.8,19
4134746,33078524727,0.0,0.0,-205.0,0,0.487,776.0,75.8,19
4134747,33078532723,0.0,0.0,-203.0,0,0.49,776.0,75.8,19
4134748,33078540723,0.0,0.0,-202.0,0,0.484,776.0,75.8,19
4134749,33078548724,0.0,0.0,-201.0,0,0.483,776.0,75.8,19
4134750,33078556723,0.0,0.0,-199.0,0,0.487,776.0,75.8,19
4134751,33078564723,0.0,0.0,-198.0,0,0.48,776.0,75.8,19
4134752,33078572723,3.0,1.0,-197.0,0,0.479,776.0,75.8,17
4134753,33078580723,6.0,2.0,-195.0,0,0.483,776.0,75.8,17
4134754,33078588723,8.0,3.0,-193.0,0,0.481,776.0,75.8,17
4134755,33078596723,16.0,7.0,-190.0,0,0.485,776.0,75.8,17
4134756,33078604723,18.0,9.0,-187.0,0,0.482,776.0,75.8,17
4134757,33078612723,27.0,14.0,-183.0,0,0.484,776.0,75.8,17
4134758,33078620724,34.0,19.0,-179.0,0,0.481,776.0,75.8,17
4134759,33078628727,41.0,24.0,-174.0,0,0.482,776.0,75.8,17
4134760,33078636723,48.0,30.0,-168.0,0,0.483,776.0,75.8,17
4134761,33078644724,54.0,36.0,-162.0,0,0.477,776.0,75.8,17
4134762,33078652722,61.0,42.0,-156.0,0,0.472,776.0,75.8,17
4134763,33078660723,71.0,49.0,-149.0,0,0.472,776.0,75.8,17
4134764,33078668723,80.0,56.0,-142.0,0,0.466,776.0,75.8,17
4134765,33078676723,84.0,63.0,-135.0,0,0.459,776.0,75.8,17
4134766,33078684723,91.0,70.0,-128.0,0,0.453,776.0,75.8,17
4134767,33078692723,96.0,76.0,-120.0,0,0.452,776.0,75.8,17
4134768,33078700723,104.0,83.0,-113.0,0,0.44,776.0,75.8,17
4134769,33078708726,107.0,89.0,-106.0,0,0.434,776.0,75.8,17
4134770,33078716725,110.0,94.0,-99.0,0,0.428,776.0,75.8,17
4134771,33078724723,117.0,100.0,-93.0,0,0.417,776.0,75.8,17
4134772,33078732723,124.0,105.0,-86.0,0,0.417,776.0,75.8,17
4134773,33078740726,127.0,111.0,-80.0,0,0.406,776.0,75.8,17
4134774,33078748725,132.0,116.0,-74.0,0,0.401,776.0,75.8,17
4134775,33078756724,136.0,121.0,-68.0,0,0.396,776.0,75.8,17
4134776,33078764723,139.0,125.0,-63.0,0,0.386,776.0,75.8,17
4134777,33078772722,141.0,129.0,-58.0,0,0.382,776.0,75.8,17
4134778,33078780723,145.0,133.0,-53.0,0,0.378,776.0,75.8,17
4134779,33078788725,153.0,138.0,-48.0,0,0.374,776.0,75.8,17
4134780,33078796725,165.0,144.0,-42.0,0,0.375,776.0,75.8,17
4134781,33078804724,182.0,153.0,-36.0,0,0.37,776.0,75.8,17
4134782,33078812723,200.0,165.0,-28.0,0,0.376,776.0,75.8,17
4134783,33078820723,232.0,181.0,-18.0,0,0.38,776.0,75.8,17
4134784,33078828723,269.0,202.0,-4.0,0,0.397,776.0,75.8,17
4134785,33078836723,316.0,230.0,13.0,0,0.429,776.0,75.8,17
4134786,33078844727,368.0,263.0,35.0,0,0.476,776.0,75.8,17
4134787,33078852726,425.0,303.0,61.0,0,0.52,776.0,75.8,17
4134788,33078860726,481.0,346.0,92.0,0,0.571,776.0,75.8,17
4134789,33078868723,534.0,391.0,127.0,0,0.62,776.0,75.8,17
4134790,33078876723,591.0,440.0,165.0,0,0.665,776.0,75.8,17
4134791,33078884726,639.0,488.0,206.0,0,0.711,776.0,75.8,17
4134792,33078892723,687.0,536.0,248.0,0,0.748,776.0,75.8,17
4134793,33078900723,729.0,583.0,290.0,0,0.78,776.0,75.8,17
4134794,33078908723,760.0,626.0,332.0,0,0.807,776.0,75.8,17
4134795,33078916724,789.0,665.0,372.0,0,0.823,776.0,75.8,17
4134796,33078924723,802.0,699.0,410.0,0,0.834,776.0,75.8,17
4134797,33078932726,805.0,724.0,443.0,0,0.828,776.0,75.8,17
4134798,33078940724,802.0,743.0,471.0,0,0.815,776.0,75.8,17
4134799,33078948726,784.0,753.0,492.0,0,0.785,776.0,75.8,17
4134800,33078956724,760.0,755.0,507.0,0,0.754,776.0,75.8,17
4134801,33078964726,730.0,749.0,515.0,0,0.715,776.0,75.8,17
4134802,33078972723,697.0,736.0,516.0,0,0.675,776.0,75.8,17
4134803,33078980723,661.0,718.0,511.0,1,0.693,776.0,75.8,17
4134804,33078988724,621.0,694.0,499.0,0,0.727,776.0,75.8,17
4134805,33078996724,583.0,667.0,483.0,0,0.742,776.0,75.8,17
4134806,33079004724,539.0,636.0,461.0,0,0.764,776.0,75.8,17
4134807,33079012724,495.0,602.0,435.0,0,0.77,776.0,75.8,17
4134808,33079020723,446.0,564.0,405.0,0,0.772,776.0,75.8,17
4134809,33079028723,404.0,525.0,372.0,0,0.763,776.0,75.8,17
4134810,33079036723,354.0,484.0,336.0,0,0.749,776.0,75.8,17
4134811,33079044726,310.0,442.0,298.0,0,0.728,776.0,75.8,17
4134812,33079052723,264.0,399.0,258.0,0,0.702,776.0,75.8,17
4134813,33079060723,225.0,357.0,218.0,0,0.668,776.0,75.8,17
4134814,33079068723,187.0,315.0,177.0,0,0.636,776.0,75.8,17
4134815,33079076723,148.0,275.0,136.0,0,0.601,776.0,75.8,17
4134816,33079084723,115.0,236.0,95.0,0,0.568,776.0,75.8,17
4134817,33079092723,88.0,200.0,56.0,0,0.531,776.0,75.8,17
4134818,33079100725,63.0,167.0,19.0,0,0.507,776.0,75.8,17
4134819,33079108724,41.0,136.0,-16.0,0,0.525,776.0,75.8,17
4134820,33079116726,23.0,109.0,-48.0,0,0.538,776.0,75.8,17
4134821,33079124723,15.0,86.0,-78.0,0,0.553,776.0,75.8,17
4134822,33079132723,4.0,66.0,-104.0,0,0.556,776.0,75.8,17
4134823,33079140726,0.0,50.0,-128.0,0,0.566,776.0,75.8,19
4134824,33079148722,0.0,38.0,-147.0,0,0.555,776.0,75.8,19
4134825,33079156726,0.0,29.0,-164.0,0,0.558,776.0,75.8,19
4134826,33079164723,0.0,22.0,-177.0,0,0.546,776.0,75.8,19
4134827,33079172724,0.0,17.0,-187.0,0,0.536,776.0,75.8,19
4134828,33079180723,0.0,13.0,-196.0,0,0.538,776.0,75.8,19
4134829,33079188723,4.0,10.0,-202.0,0,0.525,776.0,75.8,17
4134830,33079196723,11.0,11.0,-206.0,0,0.517,776.0,75.8,17
4134831,33079204723,12.0,11.0,-208.0,0,0.507,776.0,75.8,17
4134832,33079212723,12.0,11.0,-209.0,0,0.502,776.0,75.8,17
4134833,33079220723,15.0,12.0,-209.0,1,0.496,776.0,75.8,17
4134834,33079228724,19.0,14.0,-208.0,0,0.499,776.0,75.8,17
4134835,33079236726,22.0,16.0,-207.0,0,0.497,776.0,75.8,17
4134836,33079244723,20.0,17.0,-205.0,0,0.499,776.0,75.8,17
4134837,33079252726,19.0,17.0,-203.0,0,0.496,776.0,75.8,17
4134838,33079260723,17.0,17.0,-202.0,0,0.489,776.0,75.8,17
4134839,33079268723,18.0,17.0,-200.0,0,0.492,776.0,75.8,17
4134840,33079276723,18.0,18.0,-199.0,0,0.485,776.0,75.8,17
4134841,33079284723,17.0,17.0,-197.0,0,0.487,776.0,75.8,17
4134842,33079292723,16.0,17.0,-196.0,0,0.48,776.0,75.8,17
4134843,33079300723,14.0,16.0,-195.0,0,0.479,776.0,75.8,17
4134844,33079308725,9.0,15.0,-194.0,0,0.478,776.0,75.8,17
4134845,33079316723,10.0,13.0,-194.0,1,0.472,776.0,75.8,17
4134846,33079324727,11.0,13.0,-193.0,0,0.476,776.0,75.8,17
4134847,33079332723,9.0,12.0,-193.0,1,0.47,776.0,75.8,17
4134848,33079340723,4.0,10.0,-192.0,0,0.475,776.0,75.8,17
4134849,33079348723,9.0,10.0,-192.0,1,0.469,776.0,75.8,17
4134850,33079356723,10.0,10.0,-191.0,0,0.474,776.0,75.8,17
4134851,33079364723,9.0,10.0,-191.0,1,0.468,776.0,75.8,17
4134852,33079372726,12.0,10.0,-189.0,0,0.478,776.0,75.8,17
4134853,33079380723,13.0,11.0,-188.0,0,0.471,776.0,75.8,17
4134854,33079388723,17.0,12.0,-186.0,0,0.475,776.0,75.8,17
4134855,33079396723,21.0,14.0,-184.0,0,0.473,776.0,75.8,17
4134856,33079404723,25.0,17.0,-182.0,0,0.472,776.0,75.8,17
4134857,33079412727,28.0,20.0,-179.0,0,0.475,776.0,75.8,17
4134858,33079420723,36.0,24.0,-175.0,0,0.477,776.0,75.8,17
4134859,33079428725,38.0,27.0,-171.0,0,0.473,776.0,75.8,17
4134860,33079436723,41.0,30.0,-167.0,0,0.47,776.0,75.8,17
4134861,33079444723,51.0,35.0,-163.0,0,0.466,776.0,75.8,17
4134862,33079452723,56.0,40.0,-158.0,0,0.468,776.0,75.8,17
4134863,33079460723,64.0,46.0,-152.0,0,0.468,776.0,75.8,17
4134864,33079468723,64.0,50.0,-147.0,0,0.458,776.0,75.8,17
4134865,33079476723,73.0,56.0,-141.0,0,0.459,776.0,75.8,17
4134866,33079484723,76.0,61.0,-136.0,0,0.448,776.0,75.8,17
4134867,33079492723,82.0,66.0,-130.0,0,0.449,776.0,75.8,17
4134868,33079500723,90.0,72.0,-124.0,0,0.443,776.0,75.8,17
4134869,33079508723,95.0,77.0,-118.0,0,0.438,776.0,75.8,17
4134870,33079516728,96.0,82.0,-112.0,0,0.433,776.0,75.8,17
4134871,33079524723,98.0,86.0,-107.0,0,0.423,776.0,75.8,17
4134872,33079532726,106.0,91.0,-101.0,0,0.423,776.0,75.8,17
4134873,33079540723,108.0,95.0,-96.0,0,0.413,776.0,75.8,17
4134874,33079548724,108.0,98.0,-91.0,0,0.409,776.0,75.8,17
4134875,33079556723,114.0,102.0,-87.0,0,0.4,776.0,75.8,17
4134876,33079564725,115.0,105.0,-82.0,0,0.402,776.0,75.8,17
4134877,33079572722,124.0,110.0,-78.0,0,0.393,776.0,75.8,17
4134878,33079580722,133.0,115.0,-73.0,0,0.394,776.0,75.8,17
4134879,33079588723,147.0,123.0,-67.0,0,0.395,776.0,75.8,17
4134880,33079596723,167.0,134.0,-59.0,0,0.401,776.0,75.8,17
4134881,33079604726,192.0,148.0,-50.0,0,0.399,776.0,75.8,17
4134882,33079612726,226.0,167.0,-38.0,0,0.408,776.0,75.8,17
4134883,33079620723,265.0,191.0,-23.0,0,0.414,776.0,75.8,17
4134884,33079628726,309.0,219.0,-3.0,0,0.433,776.0,75.8,17
4134885,33079636723,364.0,254.0,20.0,0,0.468,776.0,75.8,17
4134886,33079644723,416.0,294.0,48.0,0,0.517,776.0,75.8,17
4134887,33079652724,463.0,335.0,79.0,0,0.557,776.0,75.8,17
4134888,33079660723,516.0,379.0,114.0,0,0.605,776.0,75.8,17
4134889,33079668723,564.0,424.0,151.0,0,0.646,776.0,75.8,17
4134890,33079676723,607.0,468.0,189.0,0,0.682,776.0,75.8,17
4134891,33079684723,639.0,509.0,228.0,0,0.719,776.0,75.8,17
4134892,33079692723,676.0,550.0,267.0,0,0.749,776.0,75.8,17
4134893,33079700723,703.0,587.0,304.0,0,0.768,776.0,75.8,17
4134894,33079708723,717.0,618.0,339.0,0,0.782,776.0,75.8,17
4134895,33079716723,724.0,644.0,370.0,0,0.783,776.0,75.8,17
4134896,33079724723,720.0,662.0,397.0,0,0.777,776.0,75.8,17
4134897,33079732723,717.0,676.0,419.0,0,0.76,776.0,75.8,17
4134898,33079740724,696.0,681.0,435.0,0,0.732,776.0,75.8,17
4134899,33079748726,677.0,680.0,446.0,0,0.707,776.0,75.8,17
4134900,33079756723,649.0,672.0,450.0,0,0.667,776.0,75.8,17
4134901,33079764723,617.0,659.0,449.0,1,0.649,776.0,75.8,17
4134902,33079772723,582.0,640.0,442.0,0,0.677,776.0,75.8,17
4134903,33079780723,546.0,617.0,429.0,0,0.703,776.0,75.8,17
4134904,33079788723,506.0,590.0,412.0,0,0.716,776.0,75.8,17
4134905,33079796723,465.0,560.0,390.0,0,0.73,776.0,75.8,17
4134906,33079804723,422.0,527.0,365.0,0,0.729,776.0,75.8,17
4134907,33079812723,376.0,490.0,335.0,0,0.731,776.0,75.8,17
4134908,33079820726,332.0,452.0,303.0,0,0.716,776.0,75.8,17
4134909,33079828723,288.0,412.0,268.0,0,0.7,776.0,75.8,17
4134910,33079836723,243.0,371.0,232.0,0,0.673,776.0,75.8,17
4134911,33079844723,202.0,330.0,193.0,0,0.65,776.0,75.8,17
4134912,33079852723,164.0,290.0,155.0,0,0.614,776.0,75.8,17
4134913,33079860724,127.0,250.0,115.0,0,0.587,776.0,75.8,17
4134914,33079868724,96.0,213.0,77.0,0,0.549,776.0,75.8,17
4134915,33079876723,69.0,178.0,39.0,0,0.519,776.0,75.8,17
4134916,33079884725,42.0,145.0,3.0,0,0.513,776.0,75.8,17
4134917,33079892724,26.0,116.0,-30.0,0,0.527,776.0,75.8,17
4134918,33079900723,12.0,91.0,-61.0,0,0.543,776.0,75.8,17
4134919,33079908722,3.0,70.0,-89.0,0,0.552,776.0,75.8,17
4134920,33079916723,0.0,53.0,-114.0,0,0.558,776.0,75.8,19
4134921,33079924723,0.0,40.0,-134.0,0,0.549,776.0,75.8,19
4134922,33079932726,0.0,30.0,-152.0,0,0.552,776.0,75.8,19
4134923,33079940723,0.0,23.0,-166.0,0,0.541,776.0,75.8,19
4134924,33079948723,0.0,17.0,-177.0,0,0.533,776.0,75.8,19
4134925,33079956725,0.0,13.0,-186.0,0,0.528,776.0,75.8,19
4134926,33079964725,0.0,10.0,-193.0,0,0.522,776.0,75.8,19
4134927,33079972723,4.0,9.0,-197.0,0,0.508,776.0,75.8,17
4134928,33079980723,5.0,8.0,-201.0,0,0.511,776.0,75.8,17
4134929,33079988724,11.0,8.0,-203.0,0,0.501,776.0,75.8,17
4134930,33079996723,12.0,9.0,-203.0,1,0.489,776.0,75.8,17
4134931,33080004723,16.0,11.0,-203.0,0,0.488,776.0,75.8,17
4134932,33080012726,15.0,12.0,-202.0,0,0.491,776.0,75.8,17
4134933,33080020723,17.0,13.0,-200.0,0,0.494,776.0,75.8,17
4134934,33080028723,20.0,15.0,-199.0,0,0.487,776.0,75.8,17
4134935,33080036725,18.0,16.0,-197.0,0,0.489,776.0,75.8,17
4134936,33080044723,19.0,16.0,-195.0,0,0.486,776.0,75.8,17
4134937,33080052726,16.0,16.0,-193.0,0,0.484,776.0,75.8,17
4134938,33080060723,14.0,16.0,-192.0,0,0.477,776.0,75.8,17
4134939,33080068723,14.0,15.0,-190.0,0,0.48,776.0,75.8,17
4134940,33080076723,15.0,15.0,-189.0,0,0.473,776.0,75.8,17
4134941,33080084725,14.0,15.0,-188.0,0,0.472,776.0,75.8,17
4134942,33080092723,12.0,14.0,-187.0,0,0.47,776.0,75.8,17
4134943,33080100723,11.0,13.0,-186.0,0,0.469,776.0,75.8,17
4134944,33080108723,12.0,13.0,-185.0,0,0.468,776.0,75.8,17
4134945,33080116724,12.0,13.0,-184.0,0,0.467,776.0,75.8,17
4134946,33080124723,16.0,14.0,-183.0,0,0.466,776.0,75.8,17
4134947,33080132723,16.0,14.0,-182.0,0,0.465,776.0,75.8,17
4134948,33080140724,22.0,16.0,-180.0,0,0.469,776.0,75.8,17
4134949,33080148723,23.0,18.0,-178.0,0,0.467,776.0,75.8,17
4134950,33080156723,28.0,20.0,-175.0,0,0.47,776.0,75.8,17
4134951,33080164727,32.0,23.0,-172.0,0,0.468,776.0,75.8,17
4134952,33080172723,32.0,25.0,-169.0,0,0.465,776.0,75.8,17
4134953,33080180724,41.0,29.0,-166.0,0,0.463,776.0,75.8,17
4134954,33080188723,45.0,33.0,-162.0,0,0.465,776.0,75.8,17
4134955,33080196722,52.0,38.0,-157.0,0,0.466,776.0,75.8,17
4134956,33080204728,51.0,41.0,-153.0,0,0.457,776.0,75.8,17
4134957,33080212723,62.0,46.0,-148.0,0,0.458,776.0,75.8,17
4134958,33080220723,64.0,50.0,-143.0,0,0.454,776.0,75.8,17
4134959,33080228726,66.0,54.0,-138.0,0,0.449,776.0,75.8,17
4134960,33080236728,68.0,57.0,-134.0,0,0.44,776.0,75.8,17
4134961,33080244724,79.0,63.0,-129.0,0,0.442,776.0,75.8,17
4134962,33080252725,84.0,68.0,-123.0,0,0.442,776.0,75.8,17
4134963,33080260723,91.0,73.0,-118.0,0,0.432,776.0,75.8,17
4134964,33080268725,93.0,78.0,-112.0,0,0.433,776.0,75.8,17
4134965,33080276722,99.0,83.0,-107.0,0,0.422,776.0,75.8,17
4134966,33080284726,104.0,88.0,-101.0,0,0.423,776.0,75.8,17
4134967,33080292727,110.0,94.0,-96.0,0,0.413,776.0,75.8,17
4134968,33080300723,114.0,99.0,-90.0,0,0.414,776.0,75.8,17
4134969,33080308726,116.0,103.0,-85.0,0,0.403,776.0,75.8,17
4134970,33080316726,122.0,107.0,-79.0,0,0.404,776.0,75.8,17
4134971,33080324723,126.0,112.0,-74.0,0,0.394,776.0,75.8,17
4134972,33080332723,130.0,116.0,-69.0,0,0.39,776.0,75.8,17
4134973,33080340727,133.0,120.0,-64.0,0,0.386,776.0,75.8,17
4134974,33080348724,135.0,124.0,-60.0,0,0.377,776.0,75.8,17
4134975,33080356726,137.0,127.0,-55.0,0,0.379,776.0,75.8,17
4134976,33080364723,146.0,132.0,-51.0,0,0.37,776.0,75.8,17
4134977,33080372723,159.0,138.0,-46.0,0,0.372,776.0,75.8,17
4134978,33080380726,172.0,146.0,-40.0,0,0.373,776.0,75.8,17
4134979,33080388726,195.0,158.0,-32.0,0,0.379,776.0,75.8,17
4134980,33080396724,227.0,175.0,-22.0,0,0.383,776.0,75.8,17
4134981,33080404725,267.0,197.0,-8.0,0,0.397,776.0,75.8,17
4134982,33080412724,308.0,224.0,9.0,0,0.426,776.0,75.8,17
4134983,33080420723,358.0,257.0,31.0,0,0.473,776.0,75.8,17
4134984,33080428724,412.0,294.0,56.0,0,0.51,776.0,75.8,17
4134985,33080436722,465.0,336.0,86.0,0,0.561,776.0,75.8,17
4134986,33080444726,525.0,382.0,121.0,0,0.614,776.0,75.8,17
4134987,33080452723,579.0,429.0,158.0,0,0.654,776.0,75.8,17
4134988,33080460723,624.0,477.0,198.0,0,0.7,776.0,75.8,17
4134989,33080468726,668.0,523.0,239.0,0,0.737,776.0,75.8,17
4134990,33080476723,708.0,568.0,280.0,0,0.768,776.0,75.8,17
4134991,33080484723,741.0,610.0,321.0,0,0.796,776.0,75.8,17
4134992,33080492723,764.0,647.0,360.0,0,0.812,776.0,75.8,17
4134993,33080500726,780.0,679.0,396.0,0,0.819,776.0,75.8,17
4134994,33080508723,785.0,705.0,428.0,0,0.817,776.0,75.8,17
4134995,33080516724,781.0,723.0,455.0,0,0.803,776.0,75.8,17
4134996,33080524727,767.0,734.0,477.0,0,0.784,776.0,75.8,17
4134997,33080532723,742.0,736.0,492.0,0,0.749,776.0,75.8,17
4134998,33080540723,717.0,731.0,500.0,0,0.709,776.0,75.8,17
4134999,33080548726,684.0,720.0,502.0,0,0.675,776.0,75.8,17
4135000,33080556727,654.0,704.0,497.0,1,0.688,776.0,75.8,17
4135001,33080564723,613.0,682.0,487.0,0,0.711,776.0,75.8,17
4135002,33080572728,576.0,656.0,472.0,0,0.732,776.0,75.8,17
4135003,33080580723,534.0,627.0,451.0,0,0.754,776.0,75.8,17
4135004,33080588723,487.0,593.0,427.0,0,0.757,776.0,75.8,17
4135005,33080596724,447.0,557.0,398.0,0,0.764,776.0,75.8,17
4135006,33080604723,404.0,520.0,367.0,0,0.753,776.0,75.8,17
4135007,33080612723,356.0,480.0,332.0,0,0.744,776.0,75.8,17
4135008,33080620725,309.0,439.0,296.0,0,0.721,776.0,75.8,17
4135009,33080628723,268.0,397.0,257.0,0,0.7,776.0,75.8,17
4135010,33080636723,219.0,354.0,217.0,0,0.67,776.0,75.8,17
4135011,33080644723,181.0,312.0,176.0,0,0.639,776.0,75.8,17
4135012,33080652723,144.0,271.0,136.0,0,0.602,776.0,75.8,17
4135013,33080660723,108.0,232.0,95.0,0,0.571,776.0,75.8,17
4135014,33080668726,76.0,194.0,55.0,0,0.537,776.0,75.8,17
4135015,33080676723,52.0,160.0,18.0,0,0.508,776.0,75.8,17
4135016,33080684723,32.0,129.0,-18.0,0,0.531,776.0,75.8,17
4135017,33080692723,16.0,101.0,-51.0,0,0.545,776.0,75.8,17
4135018,33080700723,1.0,77.0,-82.0,0,0.561,776.0,75.8,17
4135019,33080708723,0.0,58.0,-108.0,0,0.559,776.0,75.8,19
4135020,33080716727,0.0,44.0,-131.0,0,0.563,776.0,75.8,19
4135021,33080724724,0.0,33.0,-150.0,0,0.558,776.0,75.8,19
4135022,33080732723,0.0,25.0,-165.0,0,0.547,776.0,75.8,19
4135023,33080740723,0.0,19.0,-178.0,0,0.547,776.0,75.8,19
4135024,33080748727,0.0,15.0,-187.0,0,0.531,776.0,75.8,19
4135025,33080756725,0.0,11.0,-195.0,0,0.531,776.0,75.8,19
4135026,33080764723,0.0,8.0,-201.0,0,0.525,776.0,75.8,19
4135027,33080772723,0.0,6.0,-205.0,0,0.516,776.0,75.8,19
4135028,33080780726,0.0,5.0,-208.0,0,0.512,776.0,75.8,19
4135029,33080788724,0.0,4.0,-210.0,0,0.508,776.0,75.8,19
4135030,33080796723,0.0,3.0,-212.0,0,0.508,776.0,75.8,19
4135031,33080804724,0.0,2.0,-212.0,1,0.497,776.0,75.8,19
4135032,33080812723,0.0,2.0,-213.0,0,0.502,776.0,75.8,19
4135033,33080820723,0.0,1.0,-213.0,1,0.495,776.0,75.8,19
4135034,33080828723,0.0,1.0,-212.0,0,0.499,776.0,75.8,19
4135035,33080836725,0.0,1.0,-212.0,1,0.492,776.0,75.8,19
4135036,33080844727,0.0,1.0,-211.0,0,0.496,776.0,75.8,19
4135037,33080852723,1.0,1.0,-210.0,0,0.494,776.0,75.8,17
4135038,33080860723,0.0,0.0,-209.0,0,0.492,776.0,75.8,19
4135039,33080868723,0.0,0.0,-208.0,0,0.491,776.0,75.8,19
4135040,33080876723,0.0,0.0,-207.0,0,0.489,776.0,75.8,19
4135041,33080884723,0.0,0.0,-205.0,0,0.493,776.0,75.8,19
4135042,33080892723,0.0,0.0,-204.0,0,0.486,776.0,75.8,19
4135043,33080900727,4.0,1.0,-203.0,0,0.484,776.0,75.8,17
4135044,33080908723,4.0,2.0,-201.0,0,0.488,776.0,75.8,17
4135045,33080916723,9.0,4.0,-199.0,0,0.486,776.0,75.8,17
4135046,33080924723,13.0,6.0,-196.0,0,0.489,776.0,75.8,17
4135047,33080932723,15.0,8.0,-194.0,0,0.482,776.0,75.8,17
4135048,33080940725,16.0,10.0,-191.0,0,0.485,776.0,75.8,17
4135049,33080948724,22.0,13.0,-188.0,0,0.482,776.0,75.8,17
4135050,33080956726,24.0,16.0,-184.0,0,0.484,776.0,75.8,17
4135051,33080964727,26.0,18.0,-181.0,0,0.476,776.0,75.8,17
4135052,33080972723,29.0,21.0,-177.0,0,0.478,776.0,75.8,17
4135053,33080980723,32.0,23.0,-173.0,0,0.475,776.0,75.8,17
4135054,33080988724,37.0,27.0,-170.0,0,0.466,776.0,75.8,17
4135055,33080996727,40.0,30.0,-166.0,0,0.468,776.0,75.8,17
4135056,33081004723,45.0,34.0,-161.0,0,0.47,776.0,75.8,17
4135057,33081012724,48.0,37.0,-157.0,0,0.46,776.0,75.8,17
4135058,33081020723,54.0,41.0,-153.0,0,0.457,776.0,75.8,17
4135059,33081028723,56.0,45.0,-148.0,0,0.459,776.0,75.8,17
4135060,33081036724,65.0,50.0,-143.0,0,0.454,776.0,75.8,17
4135061,33081044723,69.0,54.0,-138.0,0,0.45,776.0,75.8,17
4135062,33081052726,76.0,60.0,-133.0,0,0.445,776.0,75.8,17
4135063,33081060726,80.0,65.0,-128.0,0,0.441,776.0,75.8,17
4135064,33081068727,86.0,70.0,-122.0,0,0.442,776.0,75.8,17
4135065,33081076725,90.0,75.0,-116.0,0,0.437,776.0,75.8,17
4135066,33081084724,100.0,81.0,-111.0,0,0.426,776.0,75.8,17
4135067,33081092727,105.0,87.0,-104.0,0,0.432,776.0,75.8,17
4135068,33081100723,109.0,92.0,-98.0,0,0.421,776.0,75.8,17
4135069,33081108723,115.0,98.0,-92.0,0,0.416,776.0,75.8,17
4135070,33081116726,120.0,103.0,-86.0,0,0.411,776.0,75.8,17
4135071,33081124723,122.0,108.0,-81.0,0,0.401,776.0,75.8,17
4135072,33081132723,132.0,114.0,-75.0,0,0.401,776.0,75.8,17
4135073,33081140723,136.0,119.0,-69.0,0,0.397,776.0,75.8,17
4135074,33081148723,138.0,124.0,-63.0,0,0.392,776.0,75.8,17
4135075,33081156723,140.0,128.0,-58.0,0,0.382,776.0,75.8,17
4135076,33081164723,140.0,131.0,-53.0,0,0.378,776.0,75.8,17
4135077,33081172723,143.0,134.0,-49.0,0,0.368,776.0,75.8,17
4135078,33081180723,149.0,137.0,-45.0,0,0.365,776.0,75.8,17
4135079,33081188723,157.0,142.0,-41.0,0,0.362,776.0,75.8,17
4135080,33081196723,163.0,147.0,-36.0,0,0.364,776.0,75.8,17
4135081,33081204723,181.0,155.0,-30.0,0,0.366,776.0,75.8,17
4135082,33081212723,203.0,167.0,-23.0,0,0.366,776.0,75.8,17
4135083,33081220723,231.0,182.0,-13.0,0,0.377,776.0,75.8,17
4135084,33081228723,272.0,204.0,0.0,0,0.395,776.0,75.8,17
4135085,33081236727,318.0,232.0,17.0,0,0.433,776.0,75.8,17
4135086,33081244723,369.0,265.0,39.0,0,0.481,776.0,75.8,17
4135087,33081252723,427.0,304.0,65.0,0,0.525,776.0,75.8,17
4135088,33081260723,483.0,348.0,96.0,0,0.577,776.0,75.8,17
4135089,33081268723,541.0,394.0,131.0,0,0.626,776.0,75.8,17
4135090,33081276723,595.0,443.0,169.0,0,0.671,776.0,75.8,17
4135091,33081284723,649.0,493.0,210.0,0,0.717,776.0,75.8,17
4135092,33081292726,695.0,542.0,253.0,0,0.758,776.0,75.8,17
4135093,33081300723,740.0,590.0,296.0,0,0.79,776.0,75.8,17
4135094,33081308723,773.0,634.0,339.0,0,0.817,776.0,75.8,17
4135095,33081316723,801.0,675.0,380.0,0,0.833,776.0,75.8,17
4135096,33081324723,815.0,709.0,419.0,0,0.844,776.0,75.8,17
4135097,33081332723,828.0,738.0,453.0,0,0.839,776.0,75.8,17
4135098,33081340723,821.0,758.0,482.0,0,0.826,776.0,75.8,17
4135099,33081348723,802.0,769.0,505.0,0,0.802,776.0,75.8,17
4135100,33081356723,782.0,772.0,522.0,0,0.772,776.0,75.8,17
4135101,33081364723,750.0,767.0,531.0,0,0.726,776.0,75.8,17
4135102,33081372723,720.0,755.0,533.0,0,0.686,776.0,75.8,17
4135103,33081380723,683.0,738.0,529.0,1,0.694,776.0,75.8,17
4135104,33081388723,639.0,714.0,518.0,0,0.728,776.0,75.8,17
4135105,33081396723,604.0,687.0,501.0,0,0.756,776.0,75.8,17
4135106,33081404724,560.0,656.0,480.0,0,0.768,776.0,75.8,17
4135107,33081412726,516.0,622.0,454.0,0,0.781,776.0,75.8,17
4135108,33081420723,470.0,585.0,425.0,0,0.779,776.0,75.8,17
4135109,33081428723,425.0,547.0,392.0,0,0.777,776.0,75.8,17
4135110,33081436723,378.0,506.0,356.0,0,0.765,776.0,75.8,17
4135111,33081444723,332.0,464.0,319.0,0,0.742,776.0,75.8,17
4135112,33081452723,288.0,421.0,279.0,0,0.722,776.0,75.8,17
4135113,33081460723,241.0,377.0,238.0,0,0.692,776.0,75.8,17
4135114,33081468723,199.0,334.0,196.0,0,0.66,776.0,75.8,17
4135115,33081476724,156.0,291.0,154.0,0,0.624,776.0,75.8,17
4135116,33081484727,124.0,250.0,112.0,0,0.589,776.0,75.8,17
4135117,33081492723,92.0,212.0,71.0,0,0.553,776.0,75.8,17
4135118,33081500727,62.0,176.0,32.0,0,0.518,776.0,75.8,17
4135119,33081508728,38.0,142.0,-5.0,0,0.524,776.0,75.8,17
4135120,33081516723,15.0,111.0,-41.0,0,0.548,776.0,75.8,17
4135121,33081524723,0.0,84.0,-73.0,0,0.558,776.0,75.8,19
4135122,33081532724,0.0,64.0,-102.0,0,0.569,776.0,75.8,19
4135123,33081540723,0.0,48.0,-127.0,0,0.57,776.0,75.8,19
4135124,33081548725,0.0,37.0,-148.0,0,0.567,776.0,75.8,19
4135125,33081556724,0.0,28.0,-164.0,0,0.553,776.0,75.8,19
4135126,33081564723,0.0,21.0,-178.0,0,0.553,776.0,75.8,19
4135127,33081572723,0.0,16.0,-189.0,0,0.545,776.0,75.8,19
4135128,33081580723,0.0,12.0,-197.0,0,0.534,776.0,75.8,19
4135129,33081588723,0.0,9.0,-204.0,0,0.534,776.0,75.8,19
4135130,33081596723,0.0,7.0,-208.0,0,0.52,776.0,75.8,19
4135131,33081604724,0.0,5.0,-212.0,0,0.522,776.0,75.8,19
4135132,33081612726,0.0,4.0,-214.0,0,0.512,776.0,75.8,19
4135133,33081620723,0.0,3.0,-216.0,0,0.513,776.0,75.8,19
4135134,33081628723,0.0,2.0,-217.0,0,0.507,776.0,75.8,19
4135135,33081636724,0.0,2.0,-217.0,1,0.501,776.0,75.8,19
4135136,33081644723,0.0,1.0,-217.0,0,0.499,776.0,75.8,19
4135137,33081652724,0.0,1.0,-217.0,0,0.498,776.0,75.8,19
4135138,33081660723,0.0,1.0,-216.0,0,0.502,776.0,75.8,19
4135139,33081668723,0.0,1.0,-215.0,0,0.5,776.0,75.8,19
4135140,33081676723,0.0,0.0,-215.0,1,0.494,776.0,75.8,19
4135141,33081684723,0.0,0.0,-214.0,0,0.498,776.0,75.8,19
4135142,33081692723,0.0,0.0,-212.0,0,0.501,776.0,75.8,19
4135143,33081700723,0.0,0.0,-211.0,0,0.494,776.0,75.8,19
4135144,33081708727,0.0,0.0,-210.0,0,0.493,776.0,75.8,19
4135145,33081716725,1.0,0.0,-209.0,0,0.492,776.0,75.8,17
4135146,33081724725,0.0,0.0,-207.0,0,0.495,776.0,75.8,19
4135147,33081732723,4.0,1.0,-206.0,0,0.489,776.0,75.8,17
4135148,33081740724,5.0,2.0,-204.0,0,0.493,776.0,75.8,17
4135149,33081748723,6.0,3.0,-202.0,0,0.491,776.0,75.8,17
4135150,33081756726,9.0,4.0,-200.0,0,0.489,776.0,75.8,17
4135151,33081764724,13.0,7.0,-198.0,0,0.487,776.0,75.8,17
4135152,33081772723,15.0,9.0,-195.0,0,0.49,776.0,75.8,17
4135153,33081780723,15.0,10.0,-192.0,0,0.488,776.0,75.8,17
4135154,33081788726,18.0,12.0,-189.0,0,0.485,776.0,75.8,17
4135155,33081796727,24.0,15.0,-186.0,0,0.482,776.0,75.8,17
4135156,33081804723,24.0,17.0,-183.0,0,0.48,776.0,75.8,17
4135157,33081812723,35.0,21.0,-179.0,0,0.482,776.0,75.8,17
4135158,33081820723,32.0,24.0,-175.0,0,0.478,776.0,75.8,17
4135159,33081828724,41.0,28.0,-171.0,0,0.475,776.0,75.8,17
4135160,33081836724,44.0,32.0,-166.0,0,0.476,776.0,75.8,17
4135161,33081844723,51.0,37.0,-162.0,0,0.467,776.0,75.8,17
4135162,33081852724,52.0,40.0,-157.0,0,0.468,776.0,75.8,17
4135163,33081860724,58.0,45.0,-152.0,0,0.464,776.0,75.8,17
4135164,33081868723,66.0,50.0,-147.0,0,0.459,776.0,75.8,17
4135165,33081876724,74.0,56.0,-141.0,0,0.46,776.0,75.8,17
4135166,33081884723,77.0,61.0,-136.0,0,0.449,776.0,75.8,17
4135167,33081892723,81.0,66.0,-130.0,0,0.45,776.0,75.8,17
4135168,33081900723,91.0,72.0,-124.0,0,0.445,776.0,75.8,17
4135169,33081908726,99.0,78.0,-117.0,0,0.445,776.0,75.8,17
4135170,33081916723,101.0,84.0,-111.0,0,0.433,776.0,75.8,17
4135171,33081924726,110.0,90.0,-105.0,0,0.428,776.0,75.8,17
4135172,33081932723,112.0,96.0,-98.0,0,0.428,776.0,75.8,17
4135173,33081940723,118.0,101.0,-92.0,0,0.417,776.0,75.8,17
4135174,33081948723,121.0,106.0,-86.0,0,0.412,776.0,75.8,17
4135175,33081956723,130.0,112.0,-80.0,0,0.407,776.0,75.8,17
4135176,33081964723,127.0,115.0,-75.0,0,0.396,776.0,75.8,17
4135177,33081972724,134.0,120.0,-69.0,0,0.397,776.0,75.8,17
4135178,33081980723,134.0,123.0,-64.0,0,0.387,776.0,75.8,17
4135179,33081988722,136.0,126.0,-60.0,0,0.378,776.0,75.8,17
4135180,33081996723,145.0,131.0,-55.0,0,0.38,776.0,75.8,17
4135181,33082004724,148.0,135.0,-51.0,0,0.371,776.0,75.8,17
4135182,33082012724,164.0,142.0,-46.0,0,0.373,776.0,75.8,17
4135183,33082020723,175.0,150.0,-39.0,0,0.379,776.0,75.8,17
4135184,33082028725,203.0,163.0,-31.0,0,0.379,776.0,75.8,17
4135185,33082036722,230.0,179.0,-21.0,0,0.383,776.0,75.8,17
4135186,33082044723,268.0,201.0,-8.0,0,0.392,776.0,75.8,17
4135187,33082052723,310.0,227.0,10.0,0,0.432,776.0,75.8,17
4135188,33082060723,360.0,259.0,31.0,0,0.466,776.0,75.8,17
4135189,33082068725,413.0,297.0,56.0,0,0.509,776.0,75.8,17
4135190,33082076724,463.0,337.0,86.0,0,0.56,776.0,75.8,17
4135191,33082084728,517.0,381.0,119.0,0,0.603,776.0,75.8,17
4135192,33082092727,569.0,426.0,155.0,0,0.648,776.0,75.8,17
4135193,33082100723,614.0,472.0,194.0,0,0.693,776.0,75.8,17
4135194,33082108728,655.0,516.0,233.0,0,0.725,776.0,75.8,17
4135195,33082116723,689.0,558.0,273.0,0,0.76,776.0,75.8,17
4135196,33082124723,716.0,596.0,311.0,0,0.779,776.0,75.8,17
4135197,33082132726,739.0,631.0,347.0,0,0.794,776.0,75.8,17
4135198,33082140724,753.0,661.0,381.0,0,0.804,776.0,75.8,17
4135199,33082148723,757.0,684.0,411.0,0,0.801,776.0,75.8,17
4135200,33082156723,749.0,700.0,436.0,0,0.786,776.0,75.8,17
4135201,33082164723,732.0,708.0,455.0,0,0.76,776.0,75.8,17
4135202,33082172726,713.0,709.0,468.0,0,0.729,776.0,75.8,17
4135203,33082180726,684.0,703.0,474.0,0,0.689,776.0,75.8,17
4135204,33082188726,656.0,691.0,475.0,0,0.661,776.0,75.8,17
4135205,33082196726,619.0,674.0,469.0,1,0.684,776.0,75.8,17
4135206,33082204727,583.0,652.0,458.0,0,0.706,776.0,75.8,17
4135207,33082212723,542.0,625.0,442.0,0,0.727,776.0,75.8,17
4135208,33082220724,502.0,595.0,421.0,0,0.744,776.0,75.8,17
4135209,33082228723,457.0,562.0,396.0,0,0.75,776.0,75.8,17
4135210,33082236723,412.0,525.0,367.0,0,0.752,776.0,75.8,17
4135211,33082244725,363.0,486.0,335.0,0,0.743,776.0,75.8,17
4135212,33082252725,318.0,445.0,300.0,0,0.73,776.0,75.8,17
4135213,33082260723,278.0,405.0,263.0,0,0.708,776.0,75.8,17
4135214,33082268723,232.0,363.0,224.0,0,0.683,776.0,75.8,17
4135215,33082276723,191.0,321.0,184.0,0,0.652,776.0,75.8,17
4135216,33082284724,149.0,279.0,144.0,0,0.618,776.0,75.8,17
4135217,33082292723,116.0,240.0,104.0,0,0.584,776.0,75.8,17
4135218,33082300727,88.0,203.0,65.0,0,0.549,776.0,75.8,17
4135219,33082308723,60.0,168.0,27.0,0,0.516,776.0,75.8,17
4135220,33082316723,36.0,136.0,-9.0,0,0.52,776.0,75.8,17
4135221,33082324724,20.0,108.0,-42.0,0,0.534,776.0,75.8,17
4135222,33082332723,2.0,82.0,-73.0,0,0.551,776.0,75.8,17
4135223,33082340723,0.0,62.0,-101.0,0,0.561,776.0,75.8,19
4135224,33082348724,0.0,47.0,-125.0,0,0.561,776.0,75.8,19
4135225,33082356723,0.0,36.0,-144.0,0,0.551,776.0,75.8,19
4135226,33082364723,0.0,27.0,-161.0,0,0.554,776.0,75.8,19
4135227,33082372723,0.0,21.0,-174.0,0,0.542,776.0,75.8,19
4135228,33082380726,0.0,16.0,-184.0,0,0.533,776.0,75.8,19
4135229,33082388723,0.0,12.0,-192.0,0,0.527,776.0,75.8,19
4135230,33082396723,0.0,9.0,-198.0,0,0.52,776.0,75.8,19
4135231,33082404723,3.0,7.0,-203.0,0,0.518,776.0,75.8,17
4135232,33082412723,8.0,8.0,-205.0,0,0.503,776.0,75.8,17
4135233,33082420724,13.0,9.0,-207.0,0,0.503,776.0,75.8,17
4135234,33082428723,16.0,11.0,-207.0,1,0.492,776.0,75.8,17
4135235,33082436723,19.0,13.0,-206.0,0,0.495,776.0,75.8,17
4135236,33082444726,19.0,14.0,-204.0,0,0.498,776.0,75.8,17
4135237,33082452725,22.0,16.0,-202.0,0,0.495,776.0,75.8,17
4135238,33082460727,24.0,18.0,-200.0,0,0.493,776.0,75.8,17
4135239,33082468723,22.0,19.0,-197.0,0,0.495,776.0,75.8,17
4135240,33082476725,21.0,19.0,-195.0,0,0.488,776.0,75.8,17
4135241,33082484726,17.0,19.0,-193.0,0,0.485,776.0,75.8,17
4135242,33082492723,20.0,19.0,-192.0,0,0.479,776.0,75.8,17
4135243,33082500726,19.0,19.0,-190.0,0,0.482,776.0,75.8,17
4135244,33082508723,20.0,19.0,-189.0,0,0.476,776.0,75.8,17
4135245,33082516723,20.0,19.0,-187.0,0,0.48,776.0,75.8,17
4135246,33082524723,18.0,19.0,-186.0,0,0.473,776.0,75.8,17
4135247,33082532725,16.0,18.0,-185.0,0,0.472,776.0,75.8,17
4135248,33082540723,18.0,18.0,-184.0,0,0.471,776.0,75.8,17
4135249,33082548726,16.0,18.0,-183.0,0,0.47,776.0,75.8,17
4135250,33082556724,15.0,17.0,-182.0,0,0.47,776.0,75.8,17
4135251,33082564723,21.0,18.0,-181.0,0,0.469,776.0,75.8,17
4135252,33082572727,22.0,19.0,-179.0,0,0.473,776.0,75.8,17
4135253,33082580723,22.0,20.0,-178.0,0,0.466,776.0,75.8,17
4135254,33082588723,26.0,21.0,-176.0,0,0.47,776.0,75.8,17
4135255,33082596723,25.0,22.0,-174.0,0,0.468,776.0,75.8,17
4135256,33082604723,29.0,24.0,-172.0,0,0.467,776.0,75.8,17
4135257,33082612724,29.0,25.0,-169.0,0,0.47,776.0,75.8,17
4135258,33082620723,35.0,27.0,-167.0,0,0.462,776.0,75.8,17
4135259,33082628726,36.0,30.0,-164.0,0,0.465,776.0,75.8,17
4135260,33082636723,40.0,32.0,-161.0,0,0.463,776.0,75.8,17
4135261,33082644723,43.0,35.0,-158.0,0,0.46,776.0,75.8,17
4135262,33082652722,48.0,38.0,-155.0,0,0.458,776.0,75.8,17
4135263,33082660723,53.0,42.0,-151.0,0,0.46,776.0,75.8,17
4135264,33082668723,59.0,46.0,-147.0,0,0.456,776.0,75.8,17
4135265,33082676723,64.0,50.0,-142.0,0,0.458,776.0,75.8,17
4135266,33082684723,70.0,55.0,-137.0,0,0.453,776.0,75.8,17
4135267,33082692724,74.0,60.0,-132.0,0,0.449,776.0,75.8,17
4135268,33082700723,78.0,64.0,-127.0,0,0.444,776.0,75.8,17
4135269,33082708726,87.0,70.0,-122.0,0,0.44,776.0,75.8,17
4135270,33082716725,93.0,75.0,-116.0,0,0.441,776.0,75.8,17
4135271,33082724723,98.0,81.0,-110.0,0,0.435,776.0,75.8,17
4135272,33082732728,105.0,87.0,-104.0,0,0.43,776.0,75.8,17
4135273,33082740723,113.0,93.0,-98.0,0,0.425,776.0,75.8,17
4135274,33082748724,116.0,99.0,-92.0,0,0.42,776.0,75.8,17
4135275,33082756728,121.0,104.0,-86.0,0,0.414,776.0,75.8,17
4135276,33082764724,125.0,109.0,-80.0,0,0.409,776.0,75.8,17
4135277,33082772725,132.0,115.0,-74.0,0,0.404,776.0,75.8,17
4135278,33082780723,132.0,119.0,-68.0,0,0.399,776.0,75.8,17
4135279,33082788724,140.0,124.0,-63.0,0,0.389,776.0,75.8,17
4135280,33082796727,144.0,129.0,-57.0,0,0.39,776.0,75.8,17
4135281,33082804723,147.0,133.0,-52.0,0,0.38,776.0,75.8,17
4135282,33082812724,154.0,138.0,-47.0,0,0.376,776.0,75.8,17
4135283,33082820728,163.0,144.0,-42.0,0,0.372,776.0,75.8,17
4135284,33082828723,175.0,152.0,-35.0,0,0.378,776.0,75.8,17
4135285,33082836724,196.0,162.0,-28.0,0,0.372,776.0,75.8,17
4135286,33082844723,227.0,178.0,-18.0,0,0.383,776.0,75.8,17
4135287,33082852723,263.0,199.0,-5.0,0,0.391,776.0,75.8,17
4135288,33082860724,303.0,224.0,11.0,0,0.417,776.0,75.8,17
4135289,33082868726,353.0,255.0,31.0,0,0.457,776.0,75.8,17
4135290,33082876726,405.0,292.0,56.0,0,0.506,776.0,75.8,17
4135291,33082884723,459.0,332.0,85.0,0,0.551,776.0,75.8,17
4135292,33082892727,517.0,377.0,118.0,0,0.598,776.0,75.8,17
4135293,33082900723,572.0,424.0,155.0,0,0.647,776.0,75.8,17
4135294,33082908727,624.0,473.0,194.0,0,0.688,776.0,75.8,17
4135295,33082916727,672.0,521.0,236.0,0,0.732,776.0,75.8,17
4135296,33082924723,714.0,568.0,278.0,0,0.764,776.0,75.8,17
4135297,33082932726,748.0,611.0,320.0,0,0.793,776.0,75.8,17
4135298,33082940723,777.0,652.0,360.0,0,0.811,776.0,75.8,17
4135299,33082948723,795.0,686.0,398.0,0,0.823,776.0,75.8,17
4135300,33082956727,803.0,715.0,432.0,0,0.823,776.0,75.8,17
4135301,33082964724,800.0,735.0,461.0,0,0.812,776.0,75.8,17
4135302,33082972726,781.0,746.0,484.0,0,0.789,776.0,75.8,17
4135303,33082980723,759.0,749.0,501.0,0,0.76,776.0,75.8,17
4135304,33082988724,730.0,745.0,510.0,0,0.716,776.0,75.8,17
4135305,33082996724,698.0,733.0,512.0,0,0.676,776.0,75.8,17
4135306,33083004723,665.0,717.0,508.0,1,0.684,776.0,75.8,17
4135307,33083012723,624.0,694.0,498.0,0,0.713,776.0,75.8,17
4135308,33083020723,584.0,668.0,483.0,0,0.735,776.0,75.8,17
4135309,33083028723,542.0,637.0,462.0,0,0.759,776.0,75.8,17
4135310,33083036723,500.0,604.0,437.0,0,0.768,776.0,75.8,17
4135311,33083044727,454.0,568.0,408.0,0,0.773,776.0,75.8,17
4135312,33083052726,408.0,529.0,376.0,0,0.767,776.0,75.8,17
4135313,33083060723,363.0,489.0,341.0,0,0.757,776.0,75.8,17
4135314,33083068723,316.0,447.0,303.0,0,0.741,776.0,75.8,17
4135315,33083076724,272.0,404.0,264.0,0,0.715,776.0,75.8,17
4135316,33083084723,227.0,361.0,224.0,0,0.687,776.0,75.8,17
4135317,33083092723,183.0,318.0,182.0,0,0.658,776.0,75.8,17
4135318,33083100723,148.0,277.0,141.0,0,0.62,776.0,75.8,17
4135319,33083108723,108.0,236.0,100.0,0,0.585,776.0,75.8,17
4135320,33083116723,76.0,197.0,59.0,0,0.552,776.0,75.8,17
4135321,33083124723,51.0,162.0,20.0,0,0.515,776.0,75.8,17
4135322,33083132723,29.0,130.0,-17.0,0,0.526,776.0,75.8,17
4135323,33083140723,10.0,101.0,-51.0,0,0.541,776.0,75.8,17
4135324,33083148723,0.0,76.0,-82.0,0,0.554,776.0,75.8,19
4135325,33083156724,0.0,58.0,-109.0,0,0.558,776.0,75.8,19
4135326,33083164727,0.0,44.0,-132.0,0,0.558,776.0,75.8,19
4135327,33083172723,0.0,33.0,-151.0,0,0.553,776.0,75.8,19
4135328,33083180725,0.0,25.0,-167.0,0,0.55,776.0,75.8,19
4135329,33083188723,0.0,19.0,-179.0,0,0.537,776.0,75.8,19
4135330,33083196723,0.0,14.0,-189.0,0,0.534,776.0,75.8,19
4135331,33083204723,0.0,11.0,-197.0,0,0.529,776.0,75.8,19
4135332,33083212726,0.0,8.0,-203.0,0,0.522,776.0,75.8,19
4135333,33083220726,0.0,6.0,-207.0,0,0.513,776.0,75.8,19
4135334,33083228722,0.0,5.0,-210.0,0,0.509,776.0,75.8,19
4135335,33083236726,0.0,4.0,-212.0,0,0.505,776.0,75.8,19
4135336,33083244724,0.0,3.0,-213.0,0,0.5,776.0,75.8,19
4135337,33083252728,4.0,3.0,-214.0,0,0.5,776.0,75.8,17
4135338,33083260724,5.0,4.0,-214.0,1,0.494,776.0,75.8,17
4135339,33083268723,8.0,5.0,-213.0,0,0.498,776.0,75.8,17
4135340,33083276724,13.0,7.0,-211.0,0,0.501,776.0,75.8,17
4135341,33083284723,12.0,8.0,-209.0,0,0.499,776.0,75.8,17
4135342,33083292723,16.0,10.0,-207.0,0,0.497,776.0,75.8,17
4135343,33083300726,16.0,11.0,-205.0,0,0.495,776.0,75.8,17
4135344,33083308724,16.0,12.0,-202.0,0,0.498,776.0,75.8,17
4135345,33083316726,14.0,13.0,-200.0,0,0.49,776.0,75.8,17
4135346,33083324723,13.0,13.0,-198.0,0,0.488,776.0,75.8,17
4135347,33083332723,16.0,14.0,-196.0,0,0.487,776.0,75.8,17
4135348,33083340725,16.0,14.0,-194.0,0,0.485,776.0,75.8,17
4135349,33083348726,15.0,14.0,-192.0,0,0.483,776.0,75.8,17
4135350,33083356726,16.0,15.0,-190.0,0,0.482,776.0,75.8,17
4135351,33083364726,16.0,15.0,-189.0,0,0.475,776.0,75.8,17
4135352,33083372724,17.0,16.0,-187.0,0,0.479,776.0,75.8,17
4135353,33083380725,17.0,16.0,-185.0,0,0.477,776.0,75.8,17
4135354,33083388725,20.0,17.0,-184.0,0,0.471,776.0,75.8,17
4135355,33083396726,19.0,17.0,-182.0,0,0.475,776.0,75.8,17
4135356,33083404726,26.0,19.0,-180.0,0,0.473,776.0,75.8,17
4135357,33083412723,29.0,22.0,-177.0,0,0.476,776.0,75.8,17
4135358,33083420723,32.0,24.0,-174.0,0,0.474,776.0,75.8,17
4135359,33083428723,38.0,28.0,-171.0,0,0.471,776.0,75.8,17
4135360,33083436724,43.0,31.0,-167.0,0,0.473,776.0,75.8,17
4135361,33083444726,44.0,34.0,-163.0,0,0.47,776.0,75.8,17
4135362,33083452723,52.0,39.0,-159.0,0,0.467,776.0,75.8,17
4135363,33083460723,60.0,44.0,-154.0,0,0.468,776.0,75.8,17
4135364,33083468723,62.0,48.0,-150.0,0,0.459,776.0,75.8,17
4135365,33083476724,68.0,53.0,-144.0,0,0.465,776.0,75.8,17
4135366,33083484725,80.0,60.0,-139.0,0,0.455,776.0,75.8,17
4135367,33083492725,83.0,65.0,-133.0,0,0.455,776.0,75.8,17
4135368,33083500722,84.0,70.0,-127.0,0,0.45,776.0,75.8,17
4135369,33083508725,90.0,75.0,-121.0,0,0.445,776.0,75.8,17
4135370,33083516723,96.0,80.0,-115.0,0,0.44,776.0,75.8,17
4135371,33083524726,103.0,85.0,-109.0,0,0.435,776.0,75.8,17
4135372,33083532725,108.0,91.0,-103.0,0,0.429,776.0,75.8,17
4135373,33083540726,107.0,95.0,-98.0,0,0.419,776.0,75.8,17
4135374,33083548724,112.0,99.0,-93.0,0,0.415,776.0,75.8,17
4135375,33083556724,120.0,104.0,-87.0,0,0.416,776.0,75.8,17
4135376,33083564723,124.0,109.0,-82.0,0,0.406,776.0,75.8,17
4135377,33083572723,124.0,113.0,-77.0,0,0.401,776.0,75.8,17
4135378,33083580723,127.0,116.0,-72.0,0,0.397,776.0,75.8,17
4135379,33083588723,137.0,121.0,-67.0,0,0.393,776.0,75.8,17
4135380,33083596723,140.0,126.0,-63.0,0,0.384,776.0,75.8,17
4135381,33083604724,141.0,129.0,-58.0,0,0.386,776.0,75.8,17
4135382,33083612723,145.0,133.0,-53.0,0,0.382,776.0,75.8,17
4135383,33083620723,148.0,137.0,-49.0,0,0.372,776.0,75.8,17
4135384,33083628726,153.0,141.0,-45.0,0,0.369,776.0,75.8,17
4135385,33083636723,154.0,144.0,-41.0,0,0.366,776.0,75.8,17
4135386,33083644727,157.0,147.0,-37.0,0,0.363,776.0,75.8,17
4135387,33083652726,164.0,151.0,-33.0,0,0.36,776.0,75.8,17
4135388,33083660723,175.0,157.0,-29.0,0,0.357,776.0,75.8,17
4135389,33083668723,184.0,164.0,-23.0,0,0.364,776.0,75.8,17
4135390,33083676723,204.0,173.0,-17.0,0,0.359,776.0,75.8,17
4135391,33083684724,229.0,187.0,-9.0,0,0.365,776.0,75.8,17
4135392,33083692723,264.0,206.0,3.0,0,0.385,776.0,75.8,17
4135393,33083700723,301.0,229.0,17.0,0,0.408,776.0,75.8,17
4135394,33083708723,343.0,256.0,36.0,0,0.454,776.0,75.8,17
4135395,33083716723,383.0,287.0,57.0,0,0.483,776.0,75.8,17
4135396,33083724723,439.0,324.0,83.0,0,0.532,776.0,75.8,17
4135397,33083732723,485.0,363.0,112.0,0,0.573,776.0,75.8,17
4135398,33083740723,533.0,404.0,144.0,0,0.615,776.0,75.8,17
4135399,33083748723,576.0,446.0,178.0,0,0.653,776.0,75.8,17
4135400,33083756726,615.0,487.0,214.0,0,0.692,776.0,75.8,17
4135401,33083764727,650.0,526.0,250.0,0,0.721,776.0,75.8,17
4135402,33083772723,676.0,563.0,286.0,0,0.748,776.0,75.8,17
4135403,33083780726,694.0,595.0,319.0,0,0.759,776.0,75.8,17
4135404,33083788723,703.0,621.0,350.0,0,0.769,776.0,75.8,17
4135405,33083796726,712.0,643.0,377.0,0,0.765,776.0,75.8,17
4135406,33083804723,705.0,658.0,400.0,0,0.755,776.0,75.8,17
4135407,33083812723,691.0,666.0,418.0,0,0.735,776.0,75.8,17
4135408,33083820727,672.0,667.0,431.0,0,0.711,776.0,75.8,17
4135409,33083828723,639.0,661.0,437.0,0,0.672,776.0,75.8,17
4135410,33083836726,618.0,650.0,437.0,1,0.638,776.0,75.8,17
4135411,33083844723,587.0,635.0,432.0,0,0.661,776.0,75.8,17
4135412,33083852724,544.0,613.0,422.0,0,0.685,776.0,75.8,17
4135413,33083860723,509.0,588.0,406.0,0,0.712,776.0,75.8,17
4135414,33083868723,466.0,558.0,386.0,0,0.724,776.0,75.8,17
4135415,33083876724,427.0,526.0,362.0,0,0.732,776.0,75.8,17
4135416,33083884724,380.0,491.0,334.0,0,0.735,776.0,75.8,17
4135417,33083892723,340.0,454.0,304.0,0,0.724,776.0,75.8,17
4135418,33083900723,295.0,416.0,270.0,0,0.716,776.0,75.8,17
4135419,33083908726,249.0,375.0,235.0,0,0.693,776.0,75.8,17
4135420,33083916723,213.0,336.0,198.0,0,0.669,776.0,75.8,17
4135421,33083924725,173.0,296.0,160.0,0,0.64,776.0,75.8,17
4135422,33083932726,138.0,258.0,122.0,0,0.607,776.0,75.8,17
4135423,33083940723,105.0,221.0,84.0,0,0.574,776.0,75.8,17
4135424,33083948725,73.0,185.0,47.0,0,0.54,776.0,75.8,17
4135425,33083956723,46.0,151.0,11.0,0,0.507,776.0,75.8,17
4135426,33083964723,25.0,121.0,-23.0,0,0.519,776.0,75.8,17
4135427,33083972725,7.0,93.0,-55.0,0,0.537,776.0,75.8,17
4135428,33083980723,0.0,71.0,-84.0,0,0.549,776.0,75.8,19
4135429,33083988723,0.0,53.0,-109.0,0,0.552,776.0,75.8,19
4135430,33083996723,0.0,41.0,-131.0,0,0.556,776.0,75.8,19
4135431,33084004727,0.0,31.0,-149.0,0,0.55,776.0,75.8,19
4135432,33084012727,0.0,23.0,-163.0,0,0.54,776.0,75.8,19
4135433,33084020724,0.0,18.0,-175.0,0,0.538,776.0,75.8,19
4135434,33084028723,0.0,13.0,-184.0,0,0.528,776.0,75.8,19
4135435,33084036723,0.0,10.0,-191.0,0,0.522,776.0,75.8,19
4135436,33084044726,0.0,8.0,-196.0,0,0.514,776.0,75.8,19
4135437,33084052723,0.0,6.0,-200.0,0,0.511,776.0,75.8,19
4135438,33084060723,0.0,4.0,-203.0,0,0.507,776.0,75.8,19
4135439,33084068723,0.0,3.0,-205.0,0,0.502,776.0,75.8,19
4135440,33084076723,4.0,3.0,-206.0,0,0.497,776.0,75.8,17
4135441,33084084723,4.0,4.0,-206.0,1,0.491,776.0,75.8,17
4135442,33084092725,16.0,7.0,-205.0,0,0.495,776.0,75.8,17
4135443,33084100723,18.0,9.0,-203.0,0,0.498,776.0,75.8,17
4135444,33084108726,20.0,12.0,-200.0,0,0.501,776.0,75.8,17
4135445,33084116724,22.0,14.0,-197.0,0,0.498,776.0,75.8,17
4135446,33084124726,28.0,18.0,-194.0,0,0.495,776.0,75.8,17
4135447,33084132726,26.0,20.0,-191.0,0,0.492,776.0,75.8,17
4135448,33084140723,30.0,22.0,-187.0,0,0.495,776.0,75.8,17
4135449,33084148723,28.0,24.0,-184.0,0,0.486,776.0,75.8,17
4135450,33084156723,32.0,26.0,-181.0,0,0.483,776.0,75.8,17
4135451,33084164723,33.0,27.0,-178.0,0,0.48,776.0,75.8,17
4135452,33084172723,30.0,28.0,-175.0,0,0.478,776.0,75.8,17
4135453,33084180723,35.0,30.0,-172.0,0,0.475,776.0,75.8,17
4135454,33084188726,36.0,31.0,-170.0,0,0.467,776.0,75.8,17
