seq,t_us,rr_ms,hr_bpm,score,flags
54869,631283633,713.0,78.9,0.743,9
54945,632124458,840.0,78.9,0.715,9
55004,632830295,705.0,78.9,0.732,9
55060,633512966,682.0,80.6,0.784,9
55123,634192728,679.0,84.2,0.796,9
55192,635035773,843.0,84.2,0.718,9
55248,635658228,622.0,85.1,0.76,9
55304,636339431,681.0,88.0,0.829,9
55370,637100085,760.0,85.1,0.755,9
55426,637722402,622.0,88.0,0.777,9
55496,638573864,851.0,88.0,0.649,9
55565,639358938,785.0,88.0,0.701,9
55629,640103746,744.0,80.6,0.777,9
55709,641035442,931.0,78.9,0.616,9
55775,641797379,761.0,78.9,0.802,9
55850,642689509,892.0,78.8,0.702,9
55916,643451222,761.0,78.8,0.781,9
55978,644180666,729.0,78.8,0.781,9
56045,644950425,769.0,78.0,0.796,9
56104,645656307,705.0,78.8,0.784,9
56166,646386023,729.0,78.8,0.821,9
56234,647163261,777.0,78.8,0.794,9
56300,647924245,760.0,78.8,0.82,9
56363,648661039,736.0,78.9,0.847,9
56434,649462028,800.0,78.9,0.806,9
56507,650337470,875.0,78.9,0.724,9
56573,651098701,761.0,78.8,0.811,9
56639,651860000,761.0,78.8,0.82,9
56705,652621132,761.0,78.8,0.814,9
56774,653465017,843.0,78.8,0.807,9
56850,654307515,842.0,78.8,0.787,9
56918,655144346,836.0,75.0,0.824,9
56996,656060704,916.0,71.8,0.73,9
57063,656830577,769.0,71.8,0.796,9
57129,657592250,761.0,78.0,0.804,9
57191,658321566,729.0,78.0,0.85,9
57254,659058672,737.0,78.0,0.839,9
57318,659803228,744.0,78.0,0.829,9
57395,660652346,849.0,78.0,0.762,9
57467,661520278,867.0,78.0,0.756,9
57533,662282425,762.0,78.7,0.825,9
57602,663068888,786.0,78.7,0.798,9
57665,663806638,737.0,78.8,0.811,9
57733,664642648,836.0,78.7,0.828,9
57807,665468273,825.0,76.3,0.803,9
57875,666245955,777.0,76.3,0.842,9
57942,667074200,828.0,72.7,0.839,9
58017,667908718,834.0,72.7,0.815,9
58100,668924489,1015.0,72.7,0.651,9
58170,669719079,794.0,72.7,0.769,9
58232,670449335,730.0,72.7,0.796,9
58311,671374040,924.0,72.5,0.734,9
58375,672119955,745.0,72.7,0.787,9
58445,672913481,793.0,75.6,0.805,9
58517,673781583,868.0,72.5,0.75,9
58589,674591593,810.0,74.1,0.77,9
58662,675468155,876.0,74.1,0.776,9
58730,676246728,778.0,75.6,0.801,9
58801,677048796,802.0,74.8,0.782,9
58862,677770776,721.0,74.8,0.777,9
58936,678655510,884.0,74.8,0.76,9
59004,679433627,778.0,74.8,0.818,9
59072,680211594,777.0,74.8,0.831,9
59151,681136250,924.0,74.8,0.74,9
59222,681997096,860.0,74.8,0.766,9
59291,682784216,787.0,76.2,0.82,9
59355,683530503,746.0,76.2,0.839,9
59436,684470961,940.0,76.2,0.682,9
59496,685184391,713.0,76.2,0.807,9
59571,686018079,833.0,76.2,0.768,9
59635,686763899,745.0,76.2,0.806,9
59706,687624385,860.0,72.0,0.805,9
59780,688508635,884.0,72.0,0.797,9
59847,689278888,770.0,76.2,0.795,9
59916,690064955,786.0,76.3,0.794,9
59979,690802529,737.0,76.3,0.811,9
60052,691678521,875.0,76.3,0.756,9
60114,692349588,671.0,76.3,0.757,9
60178,693095085,745.0,77.9,0.811,9
60255,694003205,908.0,76.3,0.689,9
60319,694749205,746.0,77.9,0.784,9
60386,695518837,769.0,78.0,0.825,9
60459,696395267,876.0,78.0,0.747,9
60524,697149101,753.0,79.7,0.809,9
60582,697846394,697.0,79.7,0.822,9
60643,698508978,662.0,80.4,0.785,9
60709,699328245,819.0,79.7,0.821,9
60773,700072956,744.0,79.7,0.789,9
60833,700727447,654.0,80.4,0.767,9
60890,701416762,689.0,80.6,0.816,9
60964,702300471,883.0,80.6,0.7,9
61031,703068861,768.0,80.6,0.763,9
61091,703722911,654.0,86.1,0.744,9
61159,704557408,834.0,80.6,0.668,9
61223,705302166,744.0,80.6,0.817,9
61288,706055355,753.0,80.6,0.849,9
61356,706832113,776.0,79.7,0.785,9
61424,707608751,776.0,78.1,0.763,9
61486,708337888,729.0,78.1,0.781,9
61547,709059425,721.0,79.7,0.779,9
61609,709790045,730.0,80.6,0.817,9
61679,710584125,794.0,79.7,0.794,9
61742,711321391,737.0,80.6,0.794,9
61814,712190205,868.0,79.7,0.733,9
61882,712967916,777.0,77.3,0.824,9
61946,713712768,744.0,80.6,0.831,9
62009,714450250,737.0,81.4,0.8,9
62075,715212911,762.0,80.6,0.796,9
62136,715935080,722.0,80.6,0.817,9
62201,716688666,753.0,79.7,0.843,9
62269,717465745,777.0,79.7,0.798,9
62330,718187096,721.0,79.7,0.816,9
62405,719079183,892.0,79.7,0.706,9
62474,719864419,785.0,79.7,0.772,9
62541,720633577,769.0,78.7,0.818,9
62604,721370509,736.0,78.7,0.818,9
62666,722100565,730.0,79.7,0.808,9
62722,722724155,623.0,79.7,0.701,9
62797,723615621,891.0,78.0,0.693,9
62860,724351938,736.0,81.5,0.796,9
62929,725137447,785.0,78.0,0.798,9
62998,725980910,843.0,78.0,0.781,9
63066,726757888,776.0,78.0,0.774,9
63132,727518728,760.0,78.9,0.79,9
63197,728272079,753.0,78.9,0.805,9
63263,729033166,761.0,78.8,0.825,9
63336,729908599,875.0,77.3,0.738,9
63404,730685843,777.0,77.3,0.779,9
63472,731463101,777.0,77.2,0.782,9
63536,732208447,745.0,77.3,0.774,9
63596,732921307,712.0,78.8,0.804,9
63666,733714357,793.0,78.8,0.803,9
63730,734459295,744.0,78.8,0.81,9
63803,735334357,875.0,77.2,0.721,9
63869,736095441,761.0,77.2,0.754,9
63932,736832306,736.0,78.8,0.788,9
63996,737577056,744.0,80.5,0.823,9
64055,738281650,704.0,80.6,0.841,9
64116,739002561,720.0,80.6,0.865,9
64172,739625132,622.0,80.6,0.789,9
64234,740354728,729.0,81.5,0.807,9
64285,740937633,582.0,82.3,0.68,9
64341,741619481,681.0,83.3,0.863,9
64396,742235085,615.0,85.2,0.788,9
64449,742834351,599.0,88.1,0.746,9
64506,743523944,689.0,88.1,0.818,9
64563,744154882,630.0,95.2,0.78,9
64615,744804200,649.0,95.2,0.8,9
64681,745565520,761.0,92.4,0.693,9
64737,746188762,623.0,95.2,0.801,9
64809,747056205,867.0,92.4,0.542,9
64866,747686978,630.0,95.2,0.825,9
64925,748392006,705.0,92.4,0.76,9
64998,749266464,874.0,87.1,0.55,9
65053,749881001,614.0,92.4,0.766,9
65112,750586531,705.0,85.1,0.797,9
65173,751308683,722.0,85.1,0.824,9
65236,752046210,737.0,85.1,0.807,9
65292,752669385,623.0,85.1,0.818,9
65364,753535562,866.0,85.1,0.681,9
65432,754312745,777.0,83.1,0.774,9
65494,755042363,729.0,82.3,0.816,9
65552,755681627,639.0,83.1,0.751,9
65616,756426132,744.0,82.3,0.812,9
65680,757171288,745.0,81.4,0.838,9
65741,757892503,721.0,81.4,0.849,9
65815,758775538,883.0,80.6,0.729,9
65885,759567899,792.0,80.5,0.79,9
65951,760329080,761.0,80.5,0.802,9
66013,761058689,729.0,80.6,0.797,9
66089,761958735,900.0,80.5,0.665,9
66156,762728017,769.0,78.8,0.803,9
66225,763513701,785.0,78.0,0.807,9
66297,764381734,868.0,76.4,0.774,9
66358,765103306,721.0,76.4,0.829,9
66419,765766447,663.0,78.0,0.751,9
66493,766650222,883.0,78.0,0.732,9
66557,767395086,744.0,78.0,0.798,9
66617,768107498,712.0,78.0,0.826,9
66689,768915734,808.0,78.0,0.785,9
66754,769668385,752.0,79.8,0.783,9
66819,770421335,752.0,79.8,0.785,9
66883,771165877,744.0,80.6,0.773,9
66948,771977275,811.0,79.8,0.779,9
67017,772763012,785.0,79.8,0.833,9
67094,773671871,908.0,79.8,0.743,9
67164,774465944,794.0,76.4,0.802,9
67242,775382509,916.0,75.6,0.7,9
67306,776129349,746.0,76.4,0.83,9
67382,777029950,900.0,75.6,0.753,9
67461,777953961,924.0,74.0,0.723,9
67527,778716425,762.0,74.0,0.819,9
67612,779689034,972.0,66.7,0.663,9
67689,780598318,909.0,66.1,0.789,9
67766,781507006,908.0,66.1,0.817,9
67847,782447436,940.0,66.0,0.774,9
67914,783217216,769.0,66.1,0.733,9
67977,783956299,739.0,66.1,0.745,9
68052,784848830,892.0,66.1,0.795,9
68122,785642672,793.0,67.3,0.752,9
68195,786460278,817.0,67.3,0.765,9
68261,787280779,820.0,73.2,0.767,9
68330,788067515,786.0,73.4,0.792,9
68398,788845543,778.0,75.7,0.814,9
68473,789738436,892.0,75.7,0.747,9
68540,790507955,769.0,75.7,0.786,9
68602,791237458,729.0,75.7,0.8,9
68668,791999155,761.0,76.3,0.832,9
68745,792907042,907.0,76.3,0.725,9
68811,793668644,761.0,77.1,0.791,9
68877,794429888,761.0,78.0,0.784,9
68938,795151233,721.0,78.8,0.777,9
69001,795887899,736.0,78.8,0.819,9
69062,796608335,720.0,78.8,0.85,9
69128,797368638,760.0,78.9,0.851,9
69195,798137239,768.0,78.8,0.818,9
69259,798881979,744.0,78.9,0.807,9
69329,799674790,792.0,78.9,0.781,9
69381,800324498,649.0,80.6,0.806,9
69445,801069398,744.0,80.6,0.856,9
69506,801731723,662.0,80.6,0.793,9
69569,802468329,736.0,80.6,0.806,9
69634,803221228,752.0,80.6,0.807,9
69695,803942453,721.0,80.6,0.817,9
69758,804679346,736.0,81.5,0.832,9
69827,805464396,785.0,81.5,0.789,9
69888,806184779,720.0,81.5,0.812,9
69944,806865125,680.0,81.5,0.822,9
70013,807649967,784.0,81.5,0.799,9
70073,808362661,712.0,81.5,0.832,9
70142,809147113,784.0,81.5,0.778,9
70209,809915006,767.0,81.5,0.767,9
70267,810611571,696.0,81.5,0.757,9
70326,811316079,704.0,83.3,0.761,9
70392,812076419,760.0,83.3,0.777,9
70458,812836767,760.0,78.9,0.778,9
70524,813597122,760.0,78.9,0.806,9
70591,814366011,768.0,78.9,0.805,9
70655,815111023,745.0,78.9,0.821,9
70729,815995267,884.0,78.9,0.716,9
70793,816740571,745.0,78.9,0.76,9
70857,817485683,745.0,78.9,0.779,9
70919,818214435,728.0,78.9,0.825,9
70989,819007295,792.0,78.9,0.824,9
71056,819776447,769.0,78.9,0.826,9
71133,820684690,908.0,78.1,0.695,9
71190,821374762,690.0,80.5,0.808,9
71256,822136709,761.0,78.8,0.82,9
71332,823036934,900.0,78.8,0.753,9
71393,823700017,663.0,78.8,0.807,9
71458,824453340,753.0,78.8,0.834,9
71521,825190531,737.0,78.8,0.805,9
71592,826049723,859.0,78.8,0.741,9
71640,826608481,558.0,79.7,0.697,9
71703,827345447,736.0,81.4,0.843,9
71771,828122437,776.0,79.7,0.819,9
71828,828811850,689.0,81.4,0.82,9
71894,829573273,761.0,81.4,0.854,9
71957,830310910,737.0,81.4,0.846,9
72021,831056172,745.0,81.4,0.842,9
72087,831817464,761.0,80.5,0.833,9
72149,832546668,729.0,81.4,0.821,9
72202,833145615,598.0,81.4,0.747,9
72258,833768740,623.0,81.4,0.794,9
72322,834514284,745.0,81.4,0.81,9
72382,835227904,713.0,81.4,0.838,9
72449,835997739,769.0,81.4,0.841,9
72518,836842113,844.0,80.5,0.739,9
72579,837505172,663.0,82.3,0.756,9
72640,838226142,720.0,83.3,0.807,9
72702,838955323,729.0,83.3,0.818,9
72770,839732118,776.0,82.3,0.808,9
72840,840582751,850.0,80.5,0.688,9
72903,841319610,736.0,81.5,0.759,9
72969,842080678,761.0,78.8,0.782,9
73039,842873893,793.0,78.8,0.82,9
73106,843642877,768.0,78.8,0.789,9
73164,844340245,697.0,78.8,0.797,9
73226,845069096,728.0,78.8,0.84,9
73288,845797955,728.0,78.8,0.848,9
73349,846518878,720.0,81.5,0.826,9
73421,847327464,808.0,81.5,0.787,9
73479,848023927,696.0,82.4,0.808,9
73542,848760645,736.0,82.4,0.795,9
73597,849375447,614.0,82.4,0.767,9
73654,850065096,689.0,83.3,0.839,9
73711,850696503,631.0,83.3,0.752,9
73766,851370385,673.0,86.2,0.809,9
73822,851994149,623.0,87.1,0.758,9
73874,852585520,591.0,89.2,0.676,9
73931,853275329,689.0,89.2,0.82,9
73988,853965022,689.0,89.2,0.824,9
74051,854643989,678.0,89.2,0.801,9
74109,855341543,697.0,88.5,0.799,9
74166,856030576,689.0,88.5,0.817,9
74214,856589916,559.0,88.5,0.785,9
74282,857367848,777.0,87.1,0.741,9
74337,857983419,615.0,87.1,0.725,9
74382,858518307,534.0,87.1,0.679,9
74436,859184131,665.0,88.5,0.752,9
74497,859847458,663.0,90.2,0.805,9
74551,860513380,665.0,90.2,0.827,9
74602,861096757,583.0,90.5,0.725,9
74657,861712876,616.0,97.4,0.807,9
74709,862362413,649.0,92.4,0.821,9
74784,863196245,833.0,92.4,0.563,9
74834,863771391,575.0,92.4,0.744,9
74893,864476565,705.0,90.5,0.769,9
74949,865157955,681.0,90.5,0.817,9
75009,865812785,654.0,91.7,0.81,9
75072,866549876,737.0,91.7,0.746,9
75137,867303246,753.0,88.1,0.733,9
75199,868032739,729.0,85.1,0.801,9
75258,868738001,705.0,85.1,0.855,9
75322,869482785,744.0,85.1,0.816,9
75386,870227605,744.0,82.3,0.796,9
75460,871110369,882.0,81.4,0.662,9
75521,871772498,662.0,81.4,0.777,9
75579,872468932,696.0,81.4,0.845,9
75656,873376441,907.0,80.6,0.659,9
75716,874089467,713.0,82.3,0.846,9
75792,874931085,841.0,80.6,0.724,9
75852,875645571,714.0,80.6,0.824,9
75915,876383706,738.0,81.3,0.811,9
75987,877193096,809.0,81.3,0.795,9
76056,878035992,842.0,81.3,0.731,9
76117,878756470,720.0,81.3,0.828,9
76188,879557000,800.0,75.0,0.798,9
76256,880334323,777.0,77.2,0.824,9
76321,881087627,753.0,77.2,0.796,9
76384,881824848,737.0,79.7,0.796,9
76450,882586073,761.0,78.8,0.835,9
76520,883437908,851.0,77.2,0.816,9
76592,884246995,809.0,77.2,0.816,9
76657,885000335,753.0,78.8,0.8,9
76721,885745520,745.0,78.8,0.798,9
76794,886620557,875.0,78.8,0.703,9
76855,887340983,720.0,79.7,0.761,9
76913,887980267,639.0,79.7,0.766,9
76977,888725228,744.0,79.7,0.814,9
77046,889568222,842.0,79.7,0.749,9
77107,890230256,662.0,80.5,0.754,9
77172,891040425,810.0,80.5,0.769,9
77241,891824970,784.0,80.5,0.782,9
77308,892593854,768.0,78.1,0.781,9
77371,893331084,737.0,80.6,0.819,9
77439,894108323,777.0,78.1,0.809,9
77501,894837170,728.0,78.1,0.825,9
77570,895621837,784.0,77.2,0.761,9
77629,896326949,705.0,78.1,0.74,9
77678,896893676,566.0,78.1,0.635,9
77738,897607171,713.0,81.4,0.779,9
77797,898312790,705.0,82.4,0.794,9
77860,899050400,737.0,82.4,0.818,9
77930,899843436,793.0,82.4,0.794,9
78002,900652000,808.0,82.4,0.757,9
78063,901373023,721.0,83.2,0.804,9
78135,902241000,867.0,83.2,0.665,9
78202,903010796,769.0,81.4,0.79,9
78268,903771893,761.0,78.8,0.802,9
78329,904492623,720.0,78.8,0.802,9
78395,905253356,760.0,78.8,0.824,9
78467,906062453,809.0,78.0,0.8,9
78539,906929888,867.0,78.0,0.727,9
78601,907659149,729.0,78.8,0.787,9
78662,908380396,721.0,78.8,0.836,9
78735,909197695,817.0,78.8,0.788,9
78792,909886323,688.0,78.9,0.823,9
78857,910638939,752.0,79.8,0.83,9
78925,911415447,776.0,78.9,0.818,9
78989,912159871,744.0,79.8,0.815,9
79049,912872621,712.0,80.6,0.831,9
79114,913624865,752.0,80.6,0.823,9
79185,914424739,799.0,79.8,0.777,9
79248,915161071,736.0,79.8,0.792,9
79316,915995180,834.0,79.8,0.754,9
79375,916641335,646.0,79.8,0.766,9
79440,917393921,752.0,79.8,0.797,9
79502,918122785,728.0,80.6,0.801,9
79572,918974084,851.0,79.8,0.722,9
79635,919652571,678.0,79.8,0.761,9
79689,920317689,665.0,81.5,0.809,9
79752,921054520,736.0,81.5,0.833,9
79817,921807239,752.0,81.5,0.783,9
79878,922528391,721.0,82.4,0.764,9
79938,923183346,654.0,82.4,0.753,9
79996,923882006,698.0,83.2,0.802,9
80060,924627717,745.0,83.2,0.797,9
80126,925388796,761.0,83.2,0.781,9
80189,926125323,736.0,81.5,0.816,9
80268,927048515,923.0,81.5,0.622,9
80328,927761865,713.0,81.5,0.83,9
80396,928539740,777.0,81.5,0.796,9
80471,929432638,892.0,80.5,0.652,9
80530,930079205,646.0,80.5,0.748,9
80589,930784329,705.0,80.5,0.813,9
80649,931497096,712.0,81.5,0.842,9
80718,932281571,784.0,81.5,0.769,9
80776,932977762,696.0,84.2,0.816,9
80844,933754481,776.0,84.2,0.754,9
80902,934451295,696.0,84.3,0.829,9
80973,935251559,800.0,84.3,0.769,9
81040,936019978,768.0,84.3,0.803,9
81113,936895273,875.0,78.1,0.65,9
81180,937664278,769.0,78.0,0.777,9
81238,938361476,697.0,78.0,0.789,9
81305,939130498,769.0,78.0,0.791,9
81367,939859205,728.0,78.0,0.812,9
81432,940611515,752.0,78.1,0.818,9
81497,941363751,752.0,78.1,0.825,9
81568,942164125,800.0,78.1,0.761,9
81627,942868916,704.0,79.8,0.751,9
81688,943589341,720.0,79.8,0.772,9
81749,944310273,720.0,82.4,0.802,9
81812,945047695,737.0,81.4,0.804,9
81876,945793020,745.0,81.4,0.809,9
81948,946601368,808.0,80.5,0.738,9
82004,947281553,680.0,81.4,0.752,9
82066,947951905,670.0,83.3,0.755,9
82121,948624380,672.0,83.3,0.82,9
82181,949337318,712.0,83.3,0.844,9
82248,950106256,768.0,83.3,0.788,9
82305,950736571,630.0,84.3,0.78,9
82362,951426757,690.0,87.0,0.806,9
82425,952165097,738.0,87.0,0.782,9
82482,952796425,631.0,88.2,0.799,9
82537,953471006,674.0,89.0,0.849,9
82602,954224837,753.0,87.0,0.795,9
82668,954986295,761.0,84.3,0.737,9
82732,955731514,745.0,81.3,0.748,9
82794,956460312,728.0,82.4,0.749,9
82851,957091177,630.0,82.4,0.741,9
82913,957820717,729.0,82.3,0.818,9
82975,958549949,729.0,82.3,0.813,9
83036,959271486,721.0,82.3,0.829,9
83089,959870006,598.0,82.3,0.759,9
83175,960907560,1037.0,82.3,0.493,9
83230,961522768,615.0,82.4,0.678,9
83282,962114418,591.0,83.2,0.714,9
83337,962788938,674.0,89.0,0.761,9
83390,963387916,598.0,89.0,0.728,9
83480,964460142,1072.0,89.0,0.49,25
83538,965099368,639.0,93.9,0.811,9
83593,965772953,673.0,93.9,0.846,9
83659,966534950,761.0,89.2,0.699,9
83717,967232177,697.0,89.2,0.825,9
83777,967887335,655.0,89.2,0.8,9
83839,968616978,729.0,89.0,0.764,9
83901,969346695,729.0,86.1,0.758,9
83955,969954091,607.0,86.1,0.773,9
84021,970774245,820.0,86.1,0.721,9
84084,971511483,737.0,82.3,0.788,9
84147,972190062,678.0,82.3,0.782,9
84204,972878638,688.0,86.1,0.807,9
84262,973575430,696.0,86.2,0.839,9
84333,974376222,800.0,82.3,0.715,9
84394,975097312,721.0,83.2,0.791,9
84456,975826233,728.0,83.2,0.804,9
84519,976562807,736.0,82.4,0.805,9
84581,977292318,729.0,82.4,0.8,9
84644,978029769,737.0,82.4,0.778,9
84699,978644672,614.0,82.4,0.764,9
84758,979349644,704.0,82.4,0.865,9
84820,980078413,728.0,82.4,0.859,9
84879,980724905,646.0,82.4,0.778,9
84938,981429216,704.0,82.4,0.78,9
85002,982174363,745.0,82.4,0.835,9
85061,982879425,705.0,85.1,0.848,9
85125,983624728,745.0,85.1,0.826,9
85188,984361705,736.0,85.1,0.82,9
85248,985015972,654.0,85.1,0.793,9
85305,985705335,689.0,85.1,0.824,9
85365,986418955,713.0,85.1,0.852,9
85425,987073837,654.0,85.1,0.846,9
85488,987811000,737.0,84.2,0.845,9
85565,988718348,907.0,84.2,0.672,9
85640,989608380,890.0,81.5,0.57,9
85695,990223073,614.0,84.2,0.678,9
85744,990789268,566.0,87.1,0.714,9
85798,991454250,664.0,87.1,0.817,9
85857,992101329,647.0,90.4,0.799,9
85925,992936363,835.0,90.4,0.63,9
85975,993511194,574.0,90.4,0.786,9
86034,994158040,646.0,92.7,0.603,9
86096,994886989,728.0,92.7,0.786,9
86167,995745944,858.0,92.7,0.546,9
86225,996384571,638.0,92.7,0.778,9
86275,996959893,575.0,92.7,0.823,9
86337,997688655,728.0,92.7,0.791,9
86395,998385430,696.0,86.2,0.808,9
86452,999074329,688.0,87.2,0.855,9
86515,999752831,678.0,87.2,0.817,9
86566,1000394184,641.0,87.2,0.841,9
86627,1001056837,662.0,88.5,0.845,9
86700,1001931711,874.0,88.5,0.584,9
86760,1002644672,712.0,87.2,0.751,9
86817,1003275368,630.0,87.2,0.782,9
86868,1003916843,641.0,88.5,0.835,9
86930,1004587543,670.0,89.6,0.864,9
86992,1005316353,728.0,89.6,0.816,9
87054,1006045119,728.0,89.6,0.776,9
87110,1006726216,681.0,88.1,0.829,9
87174,1007471193,744.0,84.3,0.834,9
87236,1008200206,729.0,84.3,0.878,9
87300,1008944781,744.0,82.4,0.858,9
87362,1009615307,670.0,82.4,0.83,9
87425,1010351645,736.0,82.4,0.824,9
87488,1011088430,736.0,82.3,0.833,9
87541,1011745548,657.0,82.3,0.79,9
87595,1012352273,606.0,82.3,0.73,9
87657,1013081983,729.0,82.3,0.859,9
87723,1013844775,762.0,82.3,0.844,9
87786,1014583732,738.0,81.5,0.759,9
87836,1015159323,575.0,82.3,0.64,9
87935,1016301447,1142.0,81.5,0.447,25
87990,1016974848,673.0,82.3,0.823,9
88053,1017711944,737.0,82.3,0.809,9
88113,1018366921,654.0,82.3,0.755,9
88164,1019007642,640.0,82.3,0.753,9
88221,1019638904,631.0,89.2,0.753,9
88276,1020312206,673.0,89.2,0.816,9
88337,1020975206,663.0,90.5,0.817,9
88391,1021640464,665.0,90.2,0.833,9
88455,1022385357,744.0,90.2,0.8,9
88523,1023162096,776.0,90.2,0.723,9
88589,1023922442,760.0,90.2,0.729,9
88650,1024642916,720.0,89.2,0.806,9
88719,1025427212,784.0,83.3,0.708,9
88773,1026091723,664.0,83.3,0.746,9
88841,1026868700,776.0,80.6,0.741,9
88889,1027427572,558.0,80.6,0.698,9
88947,1028066616,639.0,80.6,0.789,9
89007,1028779397,712.0,83.3,0.878,9
89084,1029686363,906.0,83.3,0.618,9
89129,1030220871,534.0,84.3,0.681,9
89189,1030934316,713.0,84.3,0.851,9
89249,1031589375,655.0,90.4,0.768,9
89313,1032334385,745.0,84.3,0.743,9
89365,1032983582,649.0,91.6,0.794,9
89425,1033638273,654.0,91.6,0.847,9
89475,1034213261,574.0,91.6,0.821,9
89548,1035089323,876.0,91.6,0.555,9
89602,1035696441,607.0,91.7,0.714,9
89690,1036750604,1054.0,91.6,0.439,25
89745,1037365436,614.0,91.7,0.826,9
89796,1038006198,640.0,92.4,0.853,9
89852,1038628961,622.0,93.8,0.825,9
89912,1039342132,713.0,93.8,0.826,9
89970,1039980734,638.0,94.0,0.784,9
90034,1040726085,745.0,93.8,0.703,9
90080,1041269363,543.0,94.0,0.804,9
90153,1042145160,875.0,93.8,0.531,9
90202,1042712073,566.0,94.0,0.778,9
90264,1043441142,729.0,93.8,0.76,9
90324,1044154268,713.0,84.2,0.815,9
90386,1044825006,670.0,84.2,0.833,9
90447,1045545554,720.0,84.2,0.815,9
90504,1046234503,688.0,84.2,0.837,9
90567,1046971515,737.0,84.2,0.801,9
90627,1047626334,654.0,84.2,0.752,9
90674,1048177052,550.0,87.2,0.73,9
90756,1049182843,1005.0,84.2,0.465,9
90864,1050396773,1213.0,84.2,0.249,25
90927,1051134228,737.0,83.3,0.799,9
90988,1051855177,720.0,83.3,0.781,9
91043,1052469893,614.0,83.3,0.812,9
91105,1053198752,728.0,82.4,0.843,9
91170,1053951301,752.0,82.4,0.838,9
91234,1054696090,744.0,81.4,0.821,9
91300,1055514564,818.0,80.6,0.811,9
91377,1056362966,848.0,80.6,0.7,9
91428,1057003430,640.0,81.4,0.77,9
91490,1057673762,670.0,82.4,0.798,9
91556,1058492152,818.0,80.6,0.806,9
91629,1059308616,816.0,79.8,0.733,9
91683,1059915424,606.0,79.8,0.673,9
91740,1060604683,689.0,80.6,0.794,9
91803,1061341672,736.0,81.5,0.791,9
91852,1061908706,567.0,87.1,0.714,9
91910,1062605921,697.0,87.1,0.845,9
