seq,t_us,raw,avg,filtered,candidate,detector_score,expected_rr_ms,hr_bpm,flags
54870,631291633,195.0,195.0,13.0,1,0.337,760.0,78.9,1
54871,631299633,185.0,193.0,12.0,0,0.344,760.0,78.9,1
54872,631307633,179.0,189.0,10.0,0,0.35,760.0,78.9,1
54873,631315634,172.0,185.0,8.0,0,0.346,760.0,78.9,1
54874,631323633,166.0,181.0,5.0,0,0.35,760.0,78.9,1
54875,631331632,156.0,175.0,1.0,0,0.353,760.0,78.9,1
54876,631339633,150.0,169.0,-3.0,0,0.354,760.0,78.9,1
54877,631347633,144.0,163.0,-8.0,0,0.373,760.0,78.9,1
54878,631355637,138.0,157.0,-13.0,0,0.382,760.0,78.9,1
54879,631363634,132.0,151.0,-19.0,0,0.404,760.0,78.9,1
54880,631371633,124.0,144.0,-24.0,0,0.403,760.0,78.9,1
54881,631379633,116.0,137.0,-30.0,0,0.425,760.0,78.9,1
54882,631387633,107.0,130.0,-36.0,0,0.437,760.0,78.9,1
54883,631395633,100.0,123.0,-42.0,0,0.449,760.0,78.9,1
54884,631461702,52.0,106.0,-52.0,0,0.509,760.0,78.9,1
54885,631469706,47.0,91.0,-62.0,0,0.529,760.0,78.9,1
54886,631477706,46.0,80.0,-73.0,0,0.561,760.0,78.9,1
54887,631485706,44.0,72.0,-83.0,0,0.57,760.0,78.9,1
54888,631493706,42.0,64.0,-91.0,0,0.565,760.0,78.9,1
54889,631501706,44.0,59.0,-99.0,0,0.58,760.0,78.9,1
54890,631509706,45.0,56.0,-105.0,0,0.571,760.0,78.9,1
54891,631517701,46.0,54.0,-110.0,0,0.57,760.0,78.9,1
54892,631525701,50.0,53.0,-113.0,0,0.555,760.0,78.9,1
54893,631533706,55.0,53.0,-115.0,0,0.548,760.0,78.9,1
54894,631541706,59.0,55.0,-116.0,0,0.54,760.0,78.9,1
54895,631549706,65.0,57.0,-116.0,1,0.53,760.0,78.9,1
54896,631557706,73.0,61.0,-114.0,0,0.544,760.0,78.9,1
54897,631565706,83.0,66.0,-112.0,0,0.54,760.0,78.9,1
54898,631573706,96.0,74.0,-107.0,0,0.56,760.0,78.9,1
54899,631581706,110.0,82.0,-102.0,0,0.55,760.0,78.9,1
54900,631647901,299.0,135.0,-83.0,0,0.643,760.0,78.9,1
54901,631655905,318.0,179.0,-56.0,0,0.635,760.0,78.9,1
54902,631663902,337.0,218.0,-27.0,0,0.587,760.0,78.9,1
54903,631671905,353.0,250.0,4.0,0,0.558,760.0,78.9,1
54904,631679906,366.0,278.0,33.0,0,0.603,760.0,78.9,1
54905,631687904,377.0,302.0,61.0,0,0.653,760.0,78.9,1
54906,631695905,383.0,322.0,86.0,0,0.688,760.0,78.9,1
54907,631703905,392.0,339.0,109.0,0,0.72,760.0,78.9,1
54908,631711905,394.0,352.0,128.0,0,0.726,760.0,78.9,1
54909,631719905,394.0,362.0,145.0,0,0.737,760.0,78.9,1
54910,631727906,390.0,369.0,158.0,0,0.721,760.0,78.9,1
54911,631735905,383.0,372.0,168.0,0,0.706,760.0,78.9,1
54912,631743905,380.0,374.0,175.0,0,0.685,760.0,78.9,1
54913,631751905,371.0,373.0,180.0,0,0.671,760.0,78.9,1
54914,631759906,357.0,369.0,182.0,0,0.644,760.0,78.9,1
54915,631767905,348.0,364.0,181.0,1,0.634,760.0,78.9,1
54916,631834266,224.0,330.0,171.0,0,0.707,760.0,78.9,1
54917,631842267,212.0,302.0,155.0,0,0.739,760.0,78.9,1
54918,631850267,202.0,277.0,137.0,0,0.728,760.0,78.9,1
54919,631858267,190.0,256.0,118.0,0,0.704,760.0,78.9,1
54920,631866268,181.0,238.0,99.0,0,0.669,760.0,78.9,1
54921,631874267,175.0,223.0,80.0,0,0.633,760.0,78.9,1
54922,631882267,167.0,209.0,64.0,0,0.578,760.0,78.9,1
54923,631890267,163.0,198.0,48.0,0,0.547,760.0,78.9,1
54924,631898267,159.0,189.0,35.0,0,0.497,760.0,78.9,1
54925,631906267,155.0,180.0,23.0,0,0.465,760.0,78.9,1
54926,631914267,152.0,174.0,12.0,0,0.436,760.0,78.9,1
54927,631922267,149.0,168.0,3.0,0,0.402,760.0,78.9,1
54928,631930267,148.0,163.0,-5.0,0,0.394,760.0,78.9,1
54929,631938267,147.0,159.0,-11.0,0,0.385,760.0,78.9,1
54930,631946267,147.0,156.0,-17.0,0,0.395,760.0,78.9,1
54931,631954267,144.0,153.0,-22.0,0,0.394,760.0,78.9,1
54932,632020457,132.0,148.0,-26.0,0,0.392,760.0,78.9,1
54933,632028458,130.0,144.0,-31.0,0,0.411,760.0,78.9,1
54934,632036458,127.0,140.0,-35.0,0,0.409,760.0,78.9,1
54935,632044458,125.0,136.0,-39.0,0,0.416,760.0,78.9,1
54936,632052458,125.0,133.0,-43.0,0,0.424,760.0,78.9,1
54937,632060458,124.0,131.0,-46.0,0,0.42,760.0,78.9,1
54938,632068458,123.0,129.0,-49.0,0,0.426,760.0,78.9,1
54939,632076458,121.0,127.0,-51.0,0,0.421,760.0,78.9,1
54940,632084458,119.0,125.0,-53.0,0,0.425,760.0,78.9,1
54941,632092458,120.0,124.0,-55.0,0,0.429,760.0,78.9,1
54942,632100458,115.0,122.0,-57.0,0,0.433,760.0,78.9,1
54943,632108458,117.0,121.0,-58.0,0,0.426,760.0,78.9,1
54944,632116458,114.0,119.0,-59.0,0,0.428,760.0,78.9,1
54945,632124458,116.0,118.0,-61.0,0,0.441,760.0,78.9,1
54946,632132458,115.0,117.0,-61.0,1,0.423,760.0,78.9,1
54947,632140458,114.0,117.0,-62.0,0,0.434,760.0,78.9,1
54948,632206637,109.0,115.0,-63.0,0,0.436,760.0,78.9,1
54949,632214638,111.0,114.0,-64.0,0,0.438,760.0,78.9,1
54950,632222640,114.0,114.0,-64.0,1,0.429,760.0,78.9,1
54951,632230638,117.0,115.0,-64.0,0,0.43,760.0,78.9,1
54952,632238638,121.0,116.0,-64.0,0,0.43,760.0,78.9,1
54953,632246638,131.0,120.0,-62.0,0,0.443,760.0,78.9,1
54954,632254638,140.0,125.0,-60.0,0,0.439,760.0,78.9,1
54955,632262638,152.0,131.0,-56.0,0,0.45,760.0,78.9,1
54956,632270638,166.0,140.0,-51.0,0,0.45,760.0,78.9,1
54957,632278638,180.0,149.0,-44.0,0,0.456,760.0,78.9,1
54958,632286638,200.0,162.0,-36.0,0,0.45,760.0,78.9,1
54959,632294638,217.0,175.0,-26.0,0,0.451,760.0,78.9,1
54960,632302640,238.0,190.0,-15.0,0,0.441,760.0,78.9,1
54961,632310638,259.0,207.0,-2.0,0,0.437,760.0,78.9,1
54962,632318638,276.0,224.0,12.0,0,0.461,760.0,78.9,1
54963,632326638,294.0,241.0,26.0,0,0.485,760.0,78.9,1
54964,632392842,372.0,273.0,46.0,0,0.569,760.0,78.9,1
54965,632400843,370.0,296.0,66.0,0,0.607,760.0,78.9,1
54966,632408843,369.0,314.0,85.0,0,0.636,760.0,78.9,1
54967,632416843,363.0,326.0,102.0,0,0.652,760.0,78.9,1
54968,632424843,355.0,333.0,116.0,0,0.652,760.0,78.9,1
54969,632432843,347.0,336.0,127.0,0,0.644,760.0,78.9,1
54970,632440844,336.0,336.0,134.0,0,0.617,760.0,78.9,1
54971,632448843,324.0,333.0,138.0,0,0.594,760.0,78.9,1
54972,632456843,308.0,327.0,139.0,0,0.568,760.0,78.9,1
54973,632464843,296.0,320.0,137.0,1,0.574,760.0,78.9,1
54974,632472843,282.0,310.0,133.0,0,0.586,760.0,78.9,1
54975,632480843,268.0,300.0,127.0,0,0.596,760.0,78.9,1
54976,632488843,253.0,289.0,119.0,0,0.602,760.0,78.9,1
54977,632496843,236.0,276.0,110.0,0,0.596,760.0,78.9,1
54978,632504843,223.0,263.0,99.0,0,0.595,760.0,78.9,1
54979,632512843,209.0,250.0,88.0,0,0.575,760.0,78.9,1
54980,632579361,149.0,226.0,72.0,0,0.589,760.0,78.9,1
54981,632587363,148.0,207.0,56.0,0,0.559,760.0,78.9,1
54982,632595363,144.0,192.0,40.0,0,0.529,760.0,78.9,1
54983,632603363,141.0,179.0,25.0,0,0.493,760.0,78.9,1
54984,632611363,140.0,170.0,12.0,0,0.453,760.0,78.9,1
54985,632619365,138.0,162.0,0.0,0,0.425,760.0,78.9,1
54986,632627363,135.0,155.0,-10.0,0,0.422,760.0,78.9,1
54987,632635364,132.0,150.0,-18.0,0,0.417,760.0,78.9,1
54988,632643361,133.0,146.0,-26.0,0,0.431,760.0,78.9,1
54989,632651363,132.0,142.0,-32.0,0,0.423,760.0,78.9,1
54990,632659363,127.0,139.0,-37.0,0,0.422,760.0,78.9,1
54991,632667363,127.0,136.0,-42.0,0,0.432,760.0,78.9,1
54992,632675364,125.0,133.0,-46.0,0,0.43,760.0,78.9,1
54993,632683363,122.0,130.0,-49.0,0,0.426,760.0,78.9,1
54994,632691363,119.0,128.0,-52.0,0,0.431,760.0,78.9,1
54995,632699363,116.0,125.0,-55.0,0,0.437,760.0,78.9,1
54996,632766291,105.0,120.0,-58.0,0,0.443,760.0,78.9,1
54997,632774295,102.0,116.0,-62.0,0,0.459,760.0,78.9,1
54998,632782296,102.0,112.0,-65.0,0,0.456,760.0,78.9,1
54999,632790296,104.0,110.0,-68.0,0,0.461,760.0,78.9,1
55000,632798295,104.0,109.0,-70.0,0,0.456,760.0,78.9,1
55001,632806295,107.0,108.0,-72.0,0,0.46,760.0,78.9,1
55002,632814295,104.0,107.0,-73.0,0,0.452,760.0,78.9,1
55003,632822295,106.0,107.0,-74.0,0,0.454,760.0,78.9,1
55004,632830295,108.0,107.0,-75.0,0,0.456,760.0,78.9,1
55005,632838295,106.0,107.0,-75.0,1,0.447,760.0,78.9,1
55006,632846295,107.0,107.0,-75.0,0,0.447,760.0,78.9,1
55007,632854295,108.0,107.0,-75.0,0,0.447,760.0,78.9,1
55008,632862295,111.0,108.0,-74.0,0,0.454,760.0,78.9,1
55009,632870295,111.0,109.0,-73.0,0,0.452,760.0,78.9,1
55010,632878295,110.0,109.0,-73.0,1,0.443,760.0,78.9,1
55011,632886295,109.0,109.0,-72.0,0,0.45,760.0,78.9,1
55012,632953378,108.0,109.0,-71.0,0,0.448,760.0,78.9,1
55013,632961378,113.0,110.0,-71.0,1,0.439,760.0,78.9,1
55014,632969383,123.0,113.0,-69.0,0,0.453,760.0,78.9,1
55015,632977380,132.0,118.0,-67.0,0,0.449,760.0,78.9,1
55016,632985380,150.0,125.0,-62.0,0,0.467,760.0,78.9,1
55017,632993380,167.0,136.0,-56.0,0,0.465,760.0,78.9,1
55018,633001380,187.0,148.0,-49.0,0,0.461,760.0,78.9,1
55019,633009380,208.0,163.0,-39.0,0,0.471,760.0,78.9,1
55020,633017381,227.0,178.0,-27.0,0,0.468,760.0,78.9,1
55021,633025379,251.0,196.0,-14.0,0,0.454,760.0,78.9,1
55022,633033380,273.0,215.0,1.0,0,0.456,760.0,78.9,1
55023,633041380,295.0,234.0,17.0,0,0.491,760.0,78.9,1
55024,633049380,321.0,255.0,34.0,0,0.53,760.0,78.9,1
55025,633057379,340.0,276.0,52.0,0,0.571,760.0,78.9,1
55026,633065380,361.0,296.0,70.0,0,0.605,760.0,78.9,1
55027,633073380,373.0,315.0,89.0,0,0.648,760.0,78.9,1
55028,633140134,401.0,336.0,108.0,0,0.683,760.0,78.9,1
55029,633148142,391.0,349.0,124.0,0,0.687,760.0,78.9,1
55030,633156143,376.0,356.0,138.0,0,0.693,760.0,78.9,1
55031,633164142,364.0,358.0,148.0,0,0.672,760.0,78.9,1
55032,633172142,348.0,355.0,154.0,0,0.643,760.0,78.9,1
55033,633180142,327.0,348.0,156.0,0,0.608,760.0,78.9,1
55034,633188142,309.0,339.0,155.0,1,0.598,760.0,78.9,1
55035,633196142,289.0,327.0,150.0,0,0.631,760.0,78.9,1
55036,633204142,270.0,313.0,142.0,0,0.651,760.0,78.9,1
55037,633212142,249.0,298.0,132.0,0,0.657,760.0,78.9,1
55038,633220143,228.0,281.0,120.0,0,0.659,760.0,78.9,1
55039,633228142,212.0,264.0,106.0,0,0.656,760.0,78.9,1
55040,633236142,192.0,247.0,92.0,0,0.632,760.0,78.9,1
55041,633244142,176.0,229.0,76.0,0,0.62,760.0,78.9,1
55042,633252133,164.0,214.0,60.0,0,0.59,760.0,78.9,1
55043,633260142,152.0,199.0,45.0,0,0.553,760.0,78.9,1
55044,633326524,106.0,176.0,28.0,0,0.537,760.0,78.9,1
55045,633334525,104.0,159.0,10.0,0,0.51,760.0,78.9,1
55046,633342526,104.0,145.0,-6.0,0,0.466,760.0,78.9,1
55047,633350526,104.0,135.0,-20.0,0,0.47,760.0,78.9,1
55048,633358526,102.0,127.0,-33.0,0,0.487,760.0,78.9,1
55049,633366526,103.0,121.0,-43.0,0,0.478,760.0,78.9,1
55050,633374526,103.0,117.0,-52.0,0,0.487,760.0,78.9,1
55051,633382526,103.0,114.0,-59.0,0,0.481,760.0,78.9,1
55052,633390526,102.0,111.0,-64.0,0,0.471,760.0,78.9,1
55053,633398526,99.0,108.0,-69.0,0,0.481,760.0,78.9,1
55054,633406526,98.0,106.0,-73.0,0,0.479,760.0,78.9,1
55055,633414526,97.0,103.0,-76.0,0,0.475,760.0,78.9,1
55056,633422526,96.0,102.0,-79.0,0,0.481,760.0,78.9,1
55057,633430526,96.0,100.0,-81.0,0,0.475,760.0,78.9,1
55058,633438526,95.0,99.0,-82.0,0,0.467,760.0,78.9,1
55059,633446526,95.0,98.0,-84.0,0,0.48,760.0,78.9,1
55060,633512966,95.0,97.0,-85.0,0,0.472,760.0,78.9,1
55061,633520966,94.0,96.0,-85.0,1,0.463,760.0,78.9,1
55062,633528966,101.0,98.0,-86.0,0,0.474,760.0,78.9,1
55063,633536966,100.0,98.0,-85.0,1,0.472,760.0,78.9,1
55064,633544967,100.0,99.0,-85.0,1,0.462,760.0,78.9,1
55065,633552966,101.0,99.0,-84.0,0,0.469,760.0,78.9,1
55066,633560966,102.0,100.0,-83.0,0,0.467,760.0,78.9,1
55067,633568966,103.0,101.0,-82.0,0,0.465,760.0,78.9,1
55068,633576967,101.0,101.0,-81.0,0,0.462,760.0,78.9,1
55069,633584966,104.0,102.0,-80.0,0,0.46,760.0,78.9,1
55070,633592966,105.0,102.0,-79.0,0,0.458,760.0,78.9,1
55071,633600966,104.0,103.0,-78.0,0,0.456,760.0,78.9,1
55072,633608970,106.0,104.0,-77.0,0,0.454,760.0,78.9,1
55073,633616967,104.0,104.0,-76.0,0,0.452,760.0,78.9,1
55074,633624967,105.0,104.0,-75.0,0,0.45,760.0,78.9,1
55075,633632966,105.0,104.0,-74.0,0,0.448,760.0,78.9,1
55076,633699074,145.0,114.0,-71.0,0,0.461,744.0,80.6,1
55077,633707078,158.0,125.0,-65.0,0,0.479,744.0,80.6,1
55078,633715073,177.0,137.0,-57.0,0,0.483,744.0,80.6,1
55079,633723073,195.0,151.0,-48.0,0,0.475,744.0,80.6,1
55080,633731073,219.0,168.0,-36.0,0,0.481,744.0,80.6,1
55081,633739073,240.0,185.0,-23.0,0,0.464,744.0,80.6,1
55082,633747075,267.0,205.0,-8.0,0,0.469,744.0,80.6,1
55083,633755073,288.0,225.0,8.0,0,0.508,744.0,80.6,1
55084,633763073,313.0,246.0,26.0,0,0.561,744.0,80.6,1
55085,633771074,336.0,268.0,45.0,0,0.608,744.0,80.6,1
55086,633779073,354.0,289.0,64.0,0,0.649,744.0,80.6,1
55087,633787074,371.0,309.0,83.0,0,0.688,744.0,80.6,1
55088,633795074,383.0,327.0,101.0,0,0.714,744.0,80.6,1
55089,633803073,397.0,344.0,119.0,0,0.745,744.0,80.6,1
55090,633811073,407.0,359.0,136.0,0,0.763,744.0,80.6,1
55091,633819074,411.0,372.0,151.0,0,0.766,744.0,80.6,1
55092,633885933,339.0,364.0,159.0,0,0.707,744.0,80.6,1
55093,633893933,321.0,353.0,162.0,0,0.659,744.0,80.6,1
55094,633901933,302.0,341.0,160.0,1,0.645,744.0,80.6,1
55095,633909933,284.0,327.0,154.0,0,0.675,744.0,80.6,1
55096,633917933,263.0,312.0,145.0,0,0.692,744.0,80.6,1
55097,633925933,244.0,295.0,134.0,0,0.694,744.0,80.6,1
55098,633933937,224.0,278.0,121.0,0,0.69,744.0,80.6,1
55099,633941934,207.0,261.0,107.0,0,0.673,744.0,80.6,1
55100,633949933,196.0,245.0,92.0,0,0.653,744.0,80.6,1
55101,633957933,176.0,228.0,76.0,0,0.628,744.0,80.6,1
55102,633965933,164.0,213.0,61.0,0,0.587,744.0,80.6,1
55103,633973933,149.0,197.0,45.0,0,0.562,744.0,80.6,1
55104,633981933,139.0,183.0,30.0,0,0.522,744.0,80.6,1
55105,633989933,127.0,170.0,16.0,0,0.486,744.0,80.6,1
55106,633997933,120.0,158.0,2.0,0,0.459,744.0,80.6,1
55107,634005933,112.0,146.0,-11.0,0,0.455,744.0,80.6,1
55108,634072724,91.0,133.0,-24.0,0,0.479,744.0,80.6,1
55109,634080728,89.0,122.0,-36.0,0,0.494,744.0,80.6,1
55110,634088728,88.0,114.0,-47.0,0,0.507,744.0,80.6,1
55111,634096724,85.0,107.0,-57.0,0,0.518,744.0,80.6,1
55112,634104726,87.0,102.0,-65.0,0,0.515,744.0,80.6,1
55113,634112728,85.0,98.0,-72.0,0,0.519,744.0,80.6,1
55114,634120728,84.0,95.0,-78.0,0,0.522,744.0,80.6,1
55115,634128728,84.0,92.0,-82.0,0,0.509,744.0,80.6,1
55116,634136728,81.0,89.0,-86.0,0,0.517,744.0,80.6,1
55117,634144728,82.0,88.0,-89.0,0,0.513,744.0,80.6,1
55118,634152728,81.0,86.0,-92.0,0,0.52,744.0,80.6,1
55119,634160728,80.0,85.0,-94.0,0,0.514,744.0,80.6,1
55120,634168728,82.0,84.0,-95.0,0,0.507,744.0,80.6,1
55121,634176728,80.0,83.0,-96.0,0,0.509,744.0,80.6,1
55122,634184724,78.0,82.0,-97.0,0,0.512,744.0,80.6,1
55123,634192728,78.0,81.0,-98.0,0,0.515,744.0,80.6,1
55124,634258858,84.0,82.0,-98.0,1,0.506,744.0,80.6,1
55125,634266860,85.0,82.0,-98.0,0,0.507,744.0,80.6,1
55126,634274861,87.0,84.0,-97.0,0,0.516,744.0,80.6,1
55127,634282860,89.0,85.0,-96.0,0,0.515,744.0,80.6,1
55128,634290859,91.0,86.0,-94.0,0,0.522,744.0,80.6,1
55129,634298860,92.0,88.0,-93.0,0,0.511,744.0,80.6,1
55130,634306860,96.0,90.0,-91.0,0,0.519,713.0,84.2,1
55131,634314859,99.0,92.0,-89.0,0,0.516,713.0,84.2,1
55132,634322860,100.0,94.0,-87.0,0,0.513,713.0,84.2,1
55133,634330859,106.0,97.0,-84.0,0,0.518,713.0,84.2,1
55134,634338860,108.0,100.0,-81.0,0,0.513,713.0,84.2,1
55135,634346860,111.0,102.0,-79.0,0,0.5,713.0,84.2,1
55136,634354859,110.0,104.0,-76.0,0,0.505,713.0,84.2,1
55137,634362860,113.0,106.0,-73.0,0,0.5,713.0,84.2,1
55138,634370859,113.0,108.0,-71.0,0,0.486,713.0,84.2,1
55139,634378860,114.0,109.0,-68.0,0,0.491,713.0,84.2,1
55140,634445206,160.0,122.0,-63.0,0,0.503,713.0,84.2,1
55141,634453211,173.0,134.0,-56.0,0,0.509,713.0,84.2,1
55142,634461211,190.0,148.0,-46.0,0,0.52,713.0,84.2,1
55143,634469211,212.0,163.0,-35.0,0,0.506,713.0,84.2,1
55144,634477210,228.0,179.0,-23.0,0,0.489,713.0,84.2,1
55145,634485211,253.0,197.0,-9.0,0,0.479,713.0,84.2,1
55146,634493211,275.0,216.0,6.0,0,0.477,713.0,84.2,1
55147,634501211,299.0,236.0,23.0,0,0.53,713.0,84.2,1
55148,634509211,321.0,257.0,40.0,0,0.569,713.0,84.2,1
55149,634517211,341.0,277.0,58.0,0,0.618,713.0,84.2,1
55150,634525211,360.0,297.0,77.0,0,0.67,713.0,84.2,1
55151,634533211,380.0,317.0,95.0,0,0.702,713.0,84.2,1
55152,634541210,395.0,336.0,114.0,0,0.747,713.0,84.2,1
55153,634549211,407.0,353.0,132.0,0,0.77,713.0,84.2,1
55154,634557211,413.0,368.0,148.0,0,0.778,713.0,84.2,1
55155,634565211,421.0,381.0,163.0,0,0.788,713.0,84.2,1
55156,634631431,364.0,377.0,172.0,0,0.739,713.0,84.2,1
55157,634639430,348.0,370.0,177.0,0,0.7,713.0,84.2,1
55158,634647430,331.0,360.0,177.0,1,0.648,713.0,84.2,1
55159,634655430,312.0,349.0,173.0,0,0.682,713.0,84.2,1
55160,634663436,295.0,336.0,166.0,0,0.704,713.0,84.2,1
55161,634671436,276.0,321.0,157.0,0,0.713,713.0,84.2,1
55162,634679436,254.0,305.0,146.0,0,0.716,713.0,84.2,1
55163,634687436,237.0,288.0,133.0,0,0.714,713.0,84.2,1
55164,634695436,220.0,272.0,119.0,0,0.698,713.0,84.2,1
55165,634703436,204.0,255.0,104.0,0,0.677,713.0,84.2,1
55166,634711436,191.0,240.0,88.0,0,0.652,713.0,84.2,1
55167,634719436,177.0,225.0,73.0,0,0.61,713.0,84.2,1
55168,634727430,168.0,211.0,58.0,0,0.576,713.0,84.2,1
55169,634735436,157.0,198.0,44.0,0,0.536,713.0,84.2,1
55170,634743436,148.0,186.0,30.0,0,0.505,713.0,84.2,1
55171,634751430,144.0,176.0,18.0,0,0.461,713.0,84.2,1
55172,634817708,120.0,162.0,5.0,0,0.456,713.0,84.2,1
55173,634825712,118.0,151.0,-7.0,0,0.47,713.0,84.2,1
55174,634833711,118.0,143.0,-18.0,0,0.484,713.0,84.2,1
55175,634841711,116.0,137.0,-28.0,0,0.496,713.0,84.2,1
55176,634849712,112.0,131.0,-36.0,0,0.493,713.0,84.2,1
55177,634857711,109.0,125.0,-44.0,0,0.513,713.0,84.2,1
55178,634865711,106.0,121.0,-50.0,0,0.504,713.0,84.2,1
55179,634873711,104.0,117.0,-56.0,0,0.519,713.0,84.2,1
55180,634881711,99.0,112.0,-61.0,0,0.519,713.0,84.2,1
55181,634889711,98.0,109.0,-66.0,0,0.53,713.0,84.2,1
55182,634897711,95.0,106.0,-70.0,0,0.528,713.0,84.2,1
55183,634905712,94.0,103.0,-73.0,0,0.523,713.0,84.2,1
55184,634913711,92.0,100.0,-76.0,0,0.529,713.0,84.2,1
55185,634921711,90.0,98.0,-79.0,0,0.535,713.0,84.2,1
55186,634929711,91.0,96.0,-81.0,0,0.528,713.0,84.2,1
55187,634937711,87.0,94.0,-83.0,0,0.532,713.0,84.2,1
55188,635003773,87.0,92.0,-85.0,0,0.535,713.0,84.2,1
55189,635011774,87.0,91.0,-87.0,0,0.539,713.0,84.2,1
55190,635019773,86.0,90.0,-88.0,0,0.53,713.0,84.2,1
55191,635027773,87.0,89.0,-89.0,0,0.531,713.0,84.2,1
55192,635035773,85.0,88.0,-90.0,0,0.532,713.0,84.2,1
55193,635043773,85.0,87.0,-90.0,1,0.521,713.0,84.2,1
55194,635051773,87.0,87.0,-90.0,0,0.52,713.0,84.2,1
55195,635059773,88.0,87.0,-90.0,0,0.519,713.0,84.2,1
55196,635067773,89.0,88.0,-90.0,0,0.518,713.0,84.2,1
55197,635075773,91.0,89.0,-89.0,0,0.525,713.0,84.2,1
55198,635083773,94.0,90.0,-88.0,0,0.522,713.0,84.2,1
55199,635091773,99.0,92.0,-87.0,0,0.519,713.0,84.2,1
55200,635099778,103.0,95.0,-85.0,0,0.524,713.0,84.2,1
55201,635107773,111.0,99.0,-82.0,0,0.527,713.0,84.2,1
55202,635115773,118.0,103.0,-79.0,0,0.52,713.0,84.2,1
55203,635123773,132.0,110.0,-74.0,0,0.53,713.0,84.2,1
55204,635190077,301.0,157.0,-58.0,0,0.607,713.0,84.2,1
55205,635198079,324.0,197.0,-35.0,0,0.599,713.0,84.2,1
55206,635206076,341.0,232.0,-8.0,0,0.556,713.0,84.2,1
55207,635214079,359.0,263.0,19.0,0,0.593,713.0,84.2,1
55208,635222078,371.0,289.0,46.0,0,0.656,713.0,84.2,1
55209,635230080,380.0,311.0,72.0,0,0.712,713.0,84.2,1
55210,635238077,389.0,330.0,95.0,0,0.748,713.0,84.2,1
55211,635246079,394.0,345.0,116.0,0,0.777,713.0,84.2,1
55212,635254078,392.0,357.0,133.0,0,0.776,713.0,84.2,1
55213,635262079,391.0,365.0,148.0,0,0.78,713.0,84.2,1
55214,635270079,383.0,369.0,159.0,0,0.754,713.0,84.2,1
55215,635278080,379.0,372.0,168.0,0,0.742,713.0,84.2,1
55216,635286079,370.0,371.0,173.0,0,0.703,713.0,84.2,1
55217,635294079,356.0,368.0,176.0,0,0.684,713.0,84.2,1
55218,635302077,345.0,362.0,176.0,1,0.653,713.0,84.2,1
55219,635310077,329.0,354.0,173.0,0,0.677,713.0,84.2,1
55220,635376304,190.0,314.0,159.0,0,0.773,713.0,84.2,1
55221,635384306,181.0,282.0,140.0,0,0.784,713.0,84.2,1
55222,635392307,172.0,255.0,119.0,0,0.759,713.0,84.2,1
55223,635400306,160.0,232.0,97.0,0,0.718,713.0,84.2,1
55224,635408307,153.0,213.0,76.0,0,0.664,713.0,84.2,1
55225,635416306,143.0,196.0,56.0,0,0.611,713.0,84.2,1
55226,635424306,139.0,182.0,38.0,0,0.556,713.0,84.2,1
55227,635432306,132.0,170.0,21.0,0,0.512,713.0,84.2,1
55228,635440306,127.0,160.0,6.0,0,0.474,713.0,84.2,1
55229,635448306,125.0,151.0,-6.0,0,0.47,713.0,84.2,1
55230,635456306,122.0,144.0,-17.0,0,0.483,713.0,84.2,1
55231,635464306,120.0,138.0,-27.0,0,0.495,713.0,84.2,1
55232,635472307,117.0,133.0,-35.0,0,0.491,713.0,84.2,1
55233,635480307,116.0,129.0,-42.0,0,0.495,713.0,84.2,1
55234,635488306,116.0,126.0,-48.0,0,0.498,713.0,84.2,1
55235,635496306,116.0,123.0,-52.0,0,0.484,713.0,84.2,1
55236,635562228,92.0,116.0,-58.0,0,0.52,713.0,84.2,1
55237,635570228,92.0,110.0,-63.0,0,0.52,713.0,84.2,1
55238,635578228,87.0,104.0,-68.0,0,0.531,713.0,84.2,1
55239,635586228,88.0,100.0,-73.0,0,0.543,713.0,84.2,1
55240,635594228,84.0,96.0,-77.0,0,0.54,713.0,84.2,1
55241,635602228,84.0,93.0,-81.0,0,0.549,713.0,84.2,1
55242,635610228,85.0,91.0,-84.0,0,0.544,713.0,84.2,1
55243,635618228,84.0,90.0,-87.0,0,0.549,713.0,84.2,1
55244,635626228,84.0,88.0,-89.0,0,0.542,713.0,84.2,1
55245,635634229,84.0,87.0,-90.0,0,0.532,713.0,84.2,1
55246,635642228,84.0,86.0,-92.0,0,0.546,713.0,84.2,1
55247,635650228,87.0,87.0,-92.0,1,0.524,713.0,84.2,1
55248,635658228,86.0,86.0,-93.0,0,0.536,713.0,84.2,1
55249,635666228,88.0,87.0,-92.0,1,0.533,713.0,84.2,1
55250,635674228,90.0,88.0,-92.0,1,0.521,713.0,84.2,1
55251,635682228,90.0,88.0,-91.0,0,0.529,713.0,84.2,1
55252,635748580,100.0,91.0,-90.0,0,0.526,713.0,84.2,1
55253,635756582,99.0,93.0,-88.0,0,0.531,713.0,84.2,1
55254,635764582,100.0,95.0,-86.0,0,0.526,713.0,84.2,1
55255,635772582,101.0,96.0,-84.0,0,0.521,713.0,84.2,1
55256,635780582,101.0,97.0,-82.0,0,0.515,713.0,84.2,1
55257,635788582,104.0,99.0,-81.0,0,0.502,713.0,84.2,1
55258,635796582,106.0,101.0,-79.0,0,0.508,705.0,85.1,1
55259,635804582,112.0,103.0,-76.0,0,0.511,705.0,85.1,1
55260,635812582,120.0,107.0,-73.0,0,0.504,705.0,85.1,1
55261,635820582,130.0,113.0,-69.0,0,0.505,705.0,85.1,1
55262,635828582,145.0,121.0,-64.0,0,0.505,705.0,85.1,1
55263,635836580,157.0,129.0,-58.0,0,0.501,705.0,85.1,1
55264,635844583,176.0,141.0,-51.0,0,0.496,705.0,85.1,1
55265,635852581,196.0,154.0,-41.0,0,0.506,705.0,85.1,1
55266,635860582,219.0,170.0,-30.0,0,0.491,705.0,85.1,1
55267,635868582,242.0,187.0,-17.0,0,0.482,705.0,85.1,1
55268,635934857,404.0,240.0,7.0,0,0.56,705.0,85.1,1
55269,635942860,411.0,281.0,36.0,0,0.644,705.0,85.1,1
55270,635950861,414.0,314.0,66.0,0,0.718,705.0,85.1,1
55271,635958861,411.0,337.0,93.0,0,0.768,705.0,85.1,1
55272,635966860,407.0,354.0,117.0,0,0.801,705.0,85.1,1
55273,635974861,400.0,365.0,137.0,0,0.809,705.0,85.1,1
55274,635982859,390.0,371.0,153.0,0,0.799,705.0,85.1,1
55275,635990860,379.0,373.0,164.0,0,0.763,705.0,85.1,1
55276,635998859,364.0,371.0,172.0,0,0.739,705.0,85.1,1
55277,636006861,352.0,366.0,175.0,0,0.686,705.0,85.1,1
55278,636014860,334.0,358.0,175.0,1,0.654,705.0,85.1,1
55279,636022859,316.0,348.0,172.0,0,0.679,705.0,85.1,1
55280,636030860,296.0,336.0,165.0,0,0.712,705.0,85.1,1
55281,636038860,275.0,321.0,156.0,0,0.721,705.0,85.1,1
55282,636046857,254.0,305.0,145.0,0,0.725,705.0,85.1,1
55283,636054859,236.0,288.0,132.0,0,0.722,705.0,85.1,1
55284,636121168,125.0,248.0,111.0,0,0.747,705.0,85.1,1
55285,636129171,120.0,217.0,88.0,0,0.709,705.0,85.1,1
55286,636137172,116.0,193.0,64.0,0,0.659,705.0,85.1,1
55287,636145171,112.0,173.0,41.0,0,0.601,705.0,85.1,1
55288,636153172,112.0,158.0,21.0,0,0.54,705.0,85.1,1
55289,636161171,107.0,146.0,3.0,0,0.492,705.0,85.1,1
55290,636169172,107.0,136.0,-13.0,0,0.508,705.0,85.1,1
55291,636177172,103.0,128.0,-26.0,0,0.508,705.0,85.1,1
55292,636185171,105.0,123.0,-37.0,0,0.512,705.0,85.1,1
55293,636193171,108.0,119.0,-46.0,0,0.511,705.0,85.1,1
55294,636201171,103.0,115.0,-53.0,0,0.505,705.0,85.1,1
55295,636209171,103.0,112.0,-59.0,0,0.507,705.0,85.1,1
55296,636217171,101.0,110.0,-64.0,0,0.507,705.0,85.1,1
55297,636225171,102.0,108.0,-67.0,0,0.492,705.0,85.1,1
55298,636233171,101.0,106.0,-70.0,0,0.498,705.0,85.1,1
55299,636241171,101.0,105.0,-73.0,0,0.504,705.0,85.1,1
55300,636307428,93.0,102.0,-75.0,0,0.498,705.0,85.1,1
55301,636315430,92.0,100.0,-77.0,0,0.501,705.0,85.1,1
55302,636323430,92.0,98.0,-79.0,0,0.505,705.0,85.1,1
55303,636331431,96.0,97.0,-81.0,0,0.509,705.0,85.1,1
55304,636339431,95.0,97.0,-82.0,0,0.5,705.0,85.1,1
55305,636347430,96.0,97.0,-82.0,1,0.489,705.0,85.1,1
55306,636355430,96.0,96.0,-83.0,0,0.501,705.0,85.1,1
55307,636363430,97.0,97.0,-83.0,1,0.49,705.0,85.1,1
55308,636371431,97.0,97.0,-82.0,0,0.497,705.0,85.1,1
55309,636379431,96.0,97.0,-82.0,1,0.486,705.0,85.1,1
55310,636387431,99.0,97.0,-82.0,0,0.486,705.0,85.1,1
55311,636395430,99.0,98.0,-81.0,0,0.493,705.0,85.1,1
55312,636403430,100.0,98.0,-80.0,0,0.49,705.0,85.1,1
55313,636411430,99.0,98.0,-80.0,1,0.48,682.0,88.0,1
55314,636419431,100.0,99.0,-79.0,0,0.487,682.0,88.0,1
55315,636427430,101.0,99.0,-78.0,0,0.485,682.0,88.0,1
55316,636493652,109.0,102.0,-76.0,0,0.49,682.0,88.0,1
55317,636501654,111.0,104.0,-75.0,0,0.477,682.0,88.0,1
55318,636509656,112.0,106.0,-73.0,0,0.483,682.0,88.0,1
55319,636517655,118.0,109.0,-70.0,0,0.486,682.0,88.0,1
55320,636525655,127.0,113.0,-67.0,0,0.479,682.0,88.0,1
55321,636533655,137.0,119.0,-63.0,0,0.48,682.0,88.0,1
55322,636541655,150.0,127.0,-58.0,0,0.48,682.0,88.0,1
55323,636549655,168.0,137.0,-52.0,0,0.477,682.0,88.0,1
55324,636557655,188.0,149.0,-43.0,0,0.489,682.0,88.0,1
55325,636565655,208.0,163.0,-33.0,0,0.477,682.0,88.0,1
55326,636573655,231.0,180.0,-22.0,0,0.463,682.0,88.0,1
55327,636581655,258.0,199.0,-8.0,0,0.464,682.0,88.0,1
55328,636589655,283.0,219.0,8.0,0,0.502,682.0,88.0,1
55329,636597655,305.0,240.0,25.0,0,0.547,682.0,88.0,1
55330,636605655,329.0,262.0,43.0,0,0.595,682.0,88.0,1
55331,636613655,350.0,283.0,62.0,0,0.646,682.0,88.0,1
55332,636679737,411.0,314.0,84.0,0,0.714,682.0,88.0,1
55333,636687739,404.0,336.0,106.0,0,0.758,682.0,88.0,1
55334,636695740,392.0,349.0,125.0,0,0.771,682.0,88.0,1
55335,636703740,379.0,357.0,140.0,0,0.761,682.0,88.0,1
55336,636711739,364.0,358.0,151.0,0,0.737,682.0,88.0,1
55337,636719740,348.0,356.0,158.0,0,0.703,682.0,88.0,1
55338,636727739,332.0,350.0,161.0,0,0.664,682.0,88.0,1
55339,636735738,313.0,341.0,160.0,1,0.641,682.0,88.0,1
55340,636743739,292.0,329.0,156.0,0,0.664,682.0,88.0,1
55341,636751740,274.0,316.0,149.0,0,0.684,682.0,88.0,1
55342,636759740,255.0,301.0,139.0,0,0.699,682.0,88.0,1
55343,636767740,238.0,286.0,128.0,0,0.689,682.0,88.0,1
55344,636775739,217.0,269.0,115.0,0,0.684,682.0,88.0,1
55345,636783740,202.0,253.0,101.0,0,0.665,682.0,88.0,1
55346,636791740,185.0,236.0,86.0,0,0.642,682.0,88.0,1
55347,636799739,171.0,221.0,71.0,0,0.609,682.0,88.0,1
55348,636865830,114.0,195.0,53.0,0,0.593,682.0,88.0,1
55349,636873831,113.0,175.0,34.0,0,0.559,682.0,88.0,1
55350,636881831,111.0,159.0,16.0,0,0.514,682.0,88.0,1
55351,636889831,114.0,148.0,1.0,0,0.467,682.0,88.0,1
55352,636897831,112.0,140.0,-13.0,0,0.485,682.0,88.0,1
55353,636905831,112.0,133.0,-25.0,0,0.491,682.0,88.0,1
55354,636913831,111.0,128.0,-34.0,0,0.479,682.0,88.0,1
55355,636921831,112.0,124.0,-42.0,0,0.486,682.0,88.0,1
55356,636929831,112.0,121.0,-49.0,0,0.49,682.0,88.0,1
55357,636937832,108.0,118.0,-54.0,0,0.48,682.0,88.0,1
55358,636945831,106.0,115.0,-58.0,0,0.478,682.0,88.0,1
55359,636953831,104.0,112.0,-62.0,0,0.486,682.0,88.0,1
55360,636961831,101.0,110.0,-65.0,0,0.482,682.0,88.0,1
55361,636969831,101.0,107.0,-68.0,0,0.488,682.0,88.0,1
55362,636977832,100.0,106.0,-71.0,0,0.494,682.0,88.0,1
55363,636985832,96.0,103.0,-73.0,0,0.488,682.0,88.0,1
55364,637052083,84.0,99.0,-76.0,0,0.504,682.0,88.0,1
55365,637060085,84.0,95.0,-79.0,0,0.51,682.0,88.0,1
55366,637068084,85.0,93.0,-81.0,0,0.504,682.0,88.0,1
55367,637076085,86.0,91.0,-83.0,0,0.507,682.0,88.0,1
55368,637084084,88.0,90.0,-85.0,0,0.511,682.0,88.0,1
55369,637092084,88.0,90.0,-86.0,0,0.503,682.0,88.0,1
55370,637100085,89.0,90.0,-87.0,0,0.505,682.0,88.0,1
55371,637108085,92.0,90.0,-87.0,1,0.494,705.0,85.1,1
55372,637116084,91.0,90.0,-87.0,0,0.494,705.0,85.1,1
55373,637124086,94.0,91.0,-86.0,0,0.501,705.0,85.1,1
55374,637132084,94.0,92.0,-85.0,0,0.499,705.0,85.1,1
55375,637140087,95.0,93.0,-84.0,0,0.497,705.0,85.1,1
55376,637148085,95.0,93.0,-84.0,1,0.487,705.0,85.1,1
55377,637156085,95.0,94.0,-83.0,0,0.494,705.0,85.1,1
55378,637164084,96.0,94.0,-82.0,0,0.492,705.0,85.1,1
55379,637172085,97.0,95.0,-81.0,0,0.49,705.0,85.1,1
55380,637238246,106.0,98.0,-79.0,0,0.495,705.0,85.1,1
55381,637246250,111.0,101.0,-77.0,0,0.491,705.0,85.1,1
55382,637254250,116.0,105.0,-74.0,0,0.494,705.0,85.1,1
55383,637262250,124.0,109.0,-70.0,0,0.496,705.0,85.1,1
55384,637270250,140.0,117.0,-66.0,0,0.487,705.0,85.1,1
55385,637278250,151.0,125.0,-60.0,0,0.495,705.0,85.1,1
55386,637286250,169.0,136.0,-53.0,0,0.49,705.0,85.1,1
55387,637294250,188.0,148.0,-44.0,0,0.491,705.0,85.1,1
55388,637302250,212.0,164.0,-33.0,0,0.487,705.0,85.1,1
55389,637310250,238.0,182.0,-20.0,0,0.479,705.0,85.1,1
55390,637318250,265.0,202.0,-5.0,0,0.467,705.0,85.1,1
55391,637326250,291.0,224.0,11.0,0,0.507,705.0,85.1,1
55392,637334250,316.0,246.0,29.0,0,0.562,705.0,85.1,1
55393,637342250,341.0,269.0,49.0,0,0.622,705.0,85.1,1
55394,637350250,362.0,292.0,69.0,0,0.667,705.0,85.1,1
55395,637358250,380.0,313.0,89.0,0,0.71,705.0,85.1,1
55396,637424173,404.0,335.0,109.0,0,0.749,705.0,85.1,1
55397,637432177,393.0,349.0,128.0,0,0.774,705.0,85.1,1
55398,637440177,377.0,356.0,142.0,0,0.753,705.0,85.1,1
55399,637448177,362.0,357.0,153.0,0,0.738,705.0,85.1,1
55400,637456177,343.0,354.0,159.0,0,0.692,705.0,85.1,1
55401,637464177,325.0,347.0,161.0,0,0.652,705.0,85.1,1
55402,637472177,304.0,336.0,160.0,1,0.64,705.0,85.1,1
55403,637480178,283.0,324.0,154.0,0,0.681,705.0,85.1,1
55404,637488177,264.0,309.0,146.0,0,0.689,705.0,85.1,1
55405,637496177,240.0,292.0,135.0,0,0.702,705.0,85.1,1
55406,637504177,220.0,275.0,123.0,0,0.691,705.0,85.1,1
55407,637512177,200.0,257.0,108.0,0,0.69,705.0,85.1,1
55408,637520177,182.0,239.0,92.0,0,0.666,705.0,85.1,1
55409,637528177,168.0,221.0,76.0,0,0.631,705.0,85.1,1
55410,637536177,149.0,204.0,60.0,0,0.596,705.0,85.1,1
55411,637544177,140.0,188.0,43.0,0,0.567,705.0,85.1,1
55412,637610399,95.0,166.0,25.0,0,0.536,705.0,85.1,1
55413,637618402,98.0,149.0,8.0,0,0.493,705.0,85.1,1
55414,637626402,98.0,137.0,-8.0,0,0.49,705.0,85.1,1
55415,637634402,98.0,127.0,-22.0,0,0.501,705.0,85.1,1
55416,637642402,98.0,120.0,-34.0,0,0.507,705.0,85.1,1
55417,637650402,102.0,116.0,-44.0,0,0.509,705.0,85.1,1
55418,637658402,102.0,113.0,-51.0,0,0.493,705.0,85.1,1
55419,637666402,105.0,111.0,-57.0,0,0.496,705.0,85.1,1
55420,637674402,106.0,110.0,-62.0,0,0.496,705.0,85.1,1
55421,637682402,108.0,109.0,-65.0,0,0.481,705.0,85.1,1
55422,637690402,108.0,109.0,-67.0,0,0.475,705.0,85.1,1
55423,637698402,107.0,108.0,-69.0,0,0.479,705.0,85.1,1
55424,637706402,108.0,108.0,-70.0,0,0.47,705.0,85.1,1
55425,637714402,107.0,108.0,-70.0,1,0.46,705.0,85.1,1
55426,637722402,105.0,107.0,-71.0,0,0.471,705.0,85.1,1
55427,637730402,105.0,107.0,-71.0,1,0.461,705.0,85.1,1
55428,637796905,93.0,103.0,-72.0,0,0.472,705.0,85.1,1
55429,637804906,95.0,101.0,-73.0,0,0.474,705.0,85.1,1
55430,637812905,92.0,99.0,-75.0,0,0.488,705.0,85.1,1
55431,637820904,92.0,97.0,-76.0,0,0.48,705.0,85.1,1
55432,637828905,93.0,96.0,-77.0,0,0.482,705.0,85.1,1
55433,637836905,93.0,96.0,-78.0,0,0.484,705.0,85.1,1
55434,637844905,96.0,96.0,-79.0,0,0.487,705.0,85.1,1
55435,637852904,94.0,95.0,-79.0,1,0.477,682.0,88.0,1
55436,637860905,96.0,95.0,-79.0,0,0.477,682.0,88.0,1
55437,637868905,99.0,96.0,-78.0,0,0.484,682.0,88.0,1
55438,637876905,98.0,97.0,-78.0,1,0.475,682.0,88.0,1
55439,637884904,100.0,98.0,-77.0,0,0.482,682.0,88.0,1
55440,637892904,101.0,98.0,-76.0,0,0.48,682.0,88.0,1
55441,637900905,102.0,99.0,-75.0,0,0.478,682.0,88.0,1
55442,637908904,101.0,100.0,-74.0,0,0.476,682.0,88.0,1
55443,637916904,100.0,100.0,-73.0,0,0.474,682.0,88.0,1
55444,637983290,105.0,101.0,-72.0,0,0.472,682.0,88.0,1
55445,637991294,108.0,103.0,-71.0,0,0.47,682.0,88.0,1
55446,637999295,113.0,105.0,-69.0,0,0.476,682.0,88.0,1
55447,638007295,120.0,109.0,-66.0,0,0.48,682.0,88.0,1
55448,638015295,125.0,113.0,-63.0,0,0.473,682.0,88.0,1
55449,638023295,140.0,119.0,-59.0,0,0.475,682.0,88.0,1
55450,638031295,155.0,128.0,-54.0,0,0.474,682.0,88.0,1
55451,638039295,169.0,138.0,-47.0,0,0.48,682.0,88.0,1
55452,638047295,191.0,151.0,-38.0,0,0.481,682.0,88.0,1
55453,638055295,212.0,166.0,-28.0,0,0.469,682.0,88.0,1
55454,638063295,240.0,184.0,-15.0,0,0.472,682.0,88.0,1
55455,638071295,267.0,204.0,-1.0,0,0.462,682.0,88.0,1
55456,638079295,289.0,225.0,15.0,0,0.513,682.0,88.0,1
55457,638087295,316.0,247.0,33.0,0,0.569,682.0,88.0,1
55458,638095295,336.0,268.0,52.0,0,0.62,682.0,88.0,1
55459,638103291,357.0,290.0,71.0,0,0.663,682.0,88.0,1
55460,638169534,404.0,318.0,93.0,0,0.731,682.0,88.0,1
55461,638177537,393.0,336.0,113.0,0,0.756,682.0,88.0,1
55462,638185537,380.0,347.0,130.0,0,0.763,682.0,88.0,1
55463,638193537,367.0,351.0,143.0,0,0.746,682.0,88.0,1
55464,638201537,352.0,352.0,153.0,0,0.729,682.0,88.0,1
55465,638209537,336.0,348.0,158.0,0,0.681,682.0,88.0,1
55466,638217537,314.0,340.0,159.0,0,0.64,682.0,88.0,1
55467,638225537,296.0,329.0,156.0,1,0.655,682.0,88.0,1
55468,638233537,276.0,316.0,150.0,0,0.677,682.0,88.0,1
55469,638241537,255.0,301.0,142.0,0,0.685,682.0,88.0,1
55470,638249536,236.0,286.0,131.0,0,0.698,682.0,88.0,1
55471,638257537,216.0,269.0,118.0,0,0.694,682.0,88.0,1
55472,638265537,199.0,252.0,104.0,0,0.676,682.0,88.0,1
55473,638273537,181.0,235.0,89.0,0,0.654,682.0,88.0,1
55474,638281537,166.0,218.0,74.0,0,0.621,682.0,88.0,1
55475,638289537,154.0,202.0,58.0,0,0.594,682.0,88.0,1
55476,638355528,108.0,180.0,40.0,0,0.57,682.0,88.0,1
55477,638363531,108.0,162.0,23.0,0,0.525,682.0,88.0,1
55478,638371531,109.0,149.0,7.0,0,0.484,682.0,88.0,1
55479,638379531,109.0,140.0,-8.0,0,0.483,682.0,88.0,1
55480,638387532,112.0,133.0,-19.0,0,0.467,682.0,88.0,1
55481,638395531,110.0,127.0,-30.0,0,0.49,682.0,88.0,1
55482,638403531,111.0,123.0,-38.0,0,0.477,682.0,88.0,1
55483,638411532,111.0,120.0,-44.0,0,0.469,682.0,88.0,1
55484,638419531,110.0,118.0,-50.0,0,0.482,682.0,88.0,1
55485,638427532,112.0,116.0,-54.0,0,0.47,682.0,88.0,1
55486,638435532,108.0,114.0,-57.0,0,0.466,682.0,88.0,1
55487,638443531,108.0,113.0,-60.0,0,0.472,682.0,88.0,1
55488,638451532,108.0,112.0,-62.0,0,0.466,682.0,88.0,1
55489,638459533,106.0,110.0,-64.0,0,0.47,682.0,88.0,1
55490,638467532,108.0,110.0,-65.0,0,0.461,682.0,88.0,1
55491,638475532,104.0,108.0,-66.0,0,0.463,682.0,88.0,1
55492,638541861,97.0,106.0,-68.0,0,0.477,682.0,88.0,1
55493,638549865,96.0,103.0,-69.0,0,0.469,682.0,88.0,1
55494,638557863,94.0,101.0,-71.0,0,0.483,682.0,88.0,1
55495,638565865,96.0,100.0,-72.0,0,0.475,682.0,88.0,1
55496,638573864,95.0,99.0,-74.0,0,0.489,682.0,88.0,1
55497,638581865,96.0,98.0,-74.0,1,0.469,682.0,88.0,1
55498,638589865,96.0,98.0,-75.0,0,0.481,682.0,88.0,1
55499,638597865,95.0,97.0,-76.0,0,0.483,682.0,88.0,1
55500,638605865,96.0,97.0,-76.0,1,0.473,682.0,88.0,1
55501,638613865,97.0,97.0,-76.0,0,0.472,682.0,88.0,1
55502,638621865,97.0,97.0,-76.0,0,0.472,682.0,88.0,1
55503,638629865,100.0,98.0,-75.0,0,0.48,682.0,88.0,1
55504,638637860,100.0,98.0,-75.0,1,0.47,682.0,88.0,1
55505,638645863,102.0,99.0,-74.0,0,0.477,682.0,88.0,1
55506,638653865,100.0,99.0,-73.0,0,0.475,682.0,88.0,1
55507,638661860,104.0,100.0,-72.0,0,0.473,682.0,88.0,1
55508,638728247,112.0,103.0,-70.0,0,0.478,682.0,88.0,1
55509,638736250,111.0,105.0,-68.0,0,0.474,682.0,88.0,1
55510,638744250,112.0,107.0,-66.0,0,0.469,682.0,88.0,1
55511,638752250,116.0,109.0,-64.0,0,0.465,682.0,88.0,1
55512,638760250,123.0,112.0,-62.0,0,0.46,682.0,88.0,1
55513,638768250,132.0,117.0,-58.0,0,0.472,682.0,88.0,1
55514,638776250,140.0,123.0,-54.0,0,0.463,682.0,88.0,1
55515,638784250,154.0,130.0,-49.0,0,0.462,682.0,88.0,1
55516,638792250,168.0,139.0,-43.0,0,0.459,682.0,88.0,1
55517,638800250,186.0,151.0,-35.0,0,0.463,682.0,88.0,1
55518,638808250,208.0,165.0,-26.0,0,0.453,682.0,88.0,1
55519,638816250,229.0,180.0,-14.0,0,0.458,682.0,88.0,1
55520,638824250,254.0,198.0,-1.0,0,0.456,682.0,88.0,1
55521,638832250,279.0,218.0,13.0,0,0.496,682.0,88.0,1
55522,638840250,299.0,237.0,30.0,0,0.56,682.0,88.0,1
55523,638848250,321.0,258.0,47.0,0,0.6,682.0,88.0,1
55524,638914400,383.0,288.0,67.0,0,0.669,682.0,88.0,1
55525,638922402,377.0,310.0,88.0,0,0.723,682.0,88.0,1
55526,638930402,369.0,324.0,107.0,0,0.748,682.0,88.0,1
55527,638938403,357.0,332.0,122.0,0,0.744,682.0,88.0,1
55528,638946402,348.0,336.0,134.0,0,0.735,682.0,88.0,1
55529,638954402,331.0,335.0,141.0,0,0.692,682.0,88.0,1
55530,638962402,315.0,330.0,145.0,0,0.664,682.0,88.0,1
55531,638970401,300.0,323.0,146.0,0,0.633,682.0,88.0,1
55532,638978402,283.0,313.0,143.0,1,0.649,682.0,88.0,1
55533,638986402,265.0,301.0,137.0,0,0.674,682.0,88.0,1
55534,638994402,245.0,288.0,129.0,0,0.684,682.0,88.0,1
55535,639002402,228.0,273.0,119.0,0,0.689,682.0,88.0,1
55536,639010402,209.0,258.0,107.0,0,0.689,682.0,88.0,1
55537,639018402,193.0,242.0,94.0,0,0.673,682.0,88.0,1
55538,639026402,180.0,227.0,81.0,0,0.646,682.0,88.0,1
55539,639034402,164.0,212.0,66.0,0,0.631,682.0,88.0,1
55540,639100610,116.0,189.0,50.0,0,0.602,682.0,88.0,1
55541,639108610,117.0,171.0,33.0,0,0.57,682.0,88.0,1
55542,639116610,116.0,158.0,17.0,0,0.524,682.0,88.0,1
55543,639124610,117.0,148.0,3.0,0,0.476,682.0,88.0,1
55544,639132610,117.0,140.0,-9.0,0,0.454,682.0,88.0,1
55545,639140614,120.0,135.0,-19.0,0,0.455,682.0,88.0,1
55546,639148611,119.0,131.0,-27.0,0,0.451,682.0,88.0,1
55547,639156614,118.0,128.0,-34.0,0,0.456,682.0,88.0,1
55548,639164614,118.0,126.0,-40.0,0,0.459,682.0,88.0,1
55549,639172614,121.0,125.0,-44.0,0,0.446,682.0,88.0,1
55550,639180610,119.0,123.0,-47.0,0,0.442,682.0,88.0,1
55551,639188610,118.0,122.0,-49.0,0,0.436,682.0,88.0,1
55552,639196610,116.0,121.0,-51.0,0,0.44,682.0,88.0,1
55553,639204611,115.0,119.0,-53.0,0,0.445,682.0,88.0,1
55554,639212610,114.0,118.0,-55.0,0,0.45,682.0,88.0,1
55555,639220610,113.0,117.0,-56.0,0,0.442,682.0,88.0,1
55556,639286935,100.0,113.0,-58.0,0,0.458,682.0,88.0,1
55557,639294938,95.0,108.0,-61.0,0,0.476,682.0,88.0,1
55558,639302938,96.0,105.0,-63.0,0,0.47,682.0,88.0,1
55559,639310938,96.0,103.0,-65.0,0,0.475,682.0,88.0,1
55560,639318938,95.0,101.0,-67.0,0,0.48,682.0,88.0,1
55561,639326938,94.0,99.0,-69.0,0,0.485,682.0,88.0,1
55562,639334939,92.0,98.0,-71.0,0,0.49,682.0,88.0,1
55563,639342938,95.0,97.0,-72.0,0,0.482,682.0,88.0,1
55564,639350939,93.0,96.0,-73.0,0,0.485,682.0,88.0,1
55565,639358938,95.0,96.0,-74.0,0,0.487,682.0,88.0,1
55566,639366936,98.0,96.0,-74.0,1,0.477,682.0,88.0,1
55567,639374938,98.0,97.0,-74.0,0,0.477,682.0,88.0,1
55568,639382938,101.0,98.0,-73.0,0,0.486,682.0,88.0,1
55569,639390939,103.0,99.0,-73.0,1,0.475,682.0,88.0,1
55570,639398938,106.0,101.0,-71.0,0,0.492,682.0,88.0,1
55571,639406938,110.0,103.0,-70.0,0,0.479,682.0,88.0,1
55572,639473198,132.0,110.0,-66.0,0,0.503,682.0,88.0,1
55573,639481199,135.0,116.0,-62.0,0,0.493,682.0,88.0,1
55574,639489200,137.0,121.0,-58.0,0,0.483,682.0,88.0,1
55575,639497201,136.0,125.0,-53.0,0,0.483,682.0,88.0,1
55576,639505200,136.0,127.0,-49.0,0,0.461,682.0,88.0,1
55577,639513198,135.0,129.0,-46.0,0,0.443,682.0,88.0,1
55578,639521200,135.0,131.0,-43.0,0,0.436,682.0,88.0,1
55579,639529199,133.0,131.0,-41.0,0,0.42,682.0,88.0,1
55580,639537199,133.0,132.0,-39.0,0,0.415,682.0,88.0,1
55581,639545199,136.0,133.0,-37.0,0,0.411,682.0,88.0,1
55582,639553200,137.0,134.0,-36.0,0,0.398,682.0,88.0,1
55583,639561200,141.0,136.0,-34.0,0,0.404,682.0,88.0,1
55584,639569200,152.0,140.0,-32.0,0,0.399,682.0,88.0,1
55585,639577200,159.0,144.0,-28.0,0,0.412,682.0,88.0,1
55586,639585200,173.0,151.0,-24.0,0,0.403,682.0,88.0,1
55587,639593200,188.0,160.0,-19.0,0,0.402,682.0,88.0,1
55588,639659557,368.0,211.0,0.0,0,0.515,682.0,88.0,1
55589,639667559,383.0,252.0,24.0,0,0.6,682.0,88.0,1
55590,639675560,396.0,287.0,52.0,0,0.686,682.0,88.0,1
55591,639683559,405.0,316.0,79.0,0,0.75,682.0,88.0,1
55592,639691561,410.0,339.0,105.0,0,0.803,682.0,88.0,1
55593,639699560,413.0,357.0,129.0,0,0.838,682.0,88.0,1
55594,639707561,414.0,371.0,149.0,0,0.845,682.0,88.0,1
55595,639715560,409.0,380.0,165.0,0,0.834,682.0,88.0,1
55596,639723559,403.0,385.0,179.0,0,0.829,682.0,88.0,1
55597,639731560,395.0,388.0,188.0,0,0.783,682.0,88.0,1
55598,639739562,383.0,387.0,194.0,0,0.753,682.0,88.0,1
55599,639747560,372.0,383.0,197.0,0,0.72,682.0,88.0,1
55600,639755560,357.0,377.0,197.0,1,0.687,682.0,88.0,1
55601,639763559,342.0,368.0,195.0,0,0.706,682.0,88.0,1
55602,639771560,325.0,358.0,189.0,0,0.747,682.0,88.0,1
55603,639779561,306.0,345.0,181.0,0,0.763,682.0,88.0,1
55604,639845848,170.0,303.0,164.0,0,0.837,682.0,88.0,1
55605,639853848,158.0,268.0,141.0,0,0.846,682.0,88.0,1
55606,639861848,149.0,239.0,116.0,0,0.813,682.0,88.0,1
55607,639869848,141.0,215.0,91.0,0,0.762,682.0,88.0,1
55608,639877848,133.0,195.0,68.0,0,0.698,682.0,88.0,1
55609,639885848,126.0,178.0,47.0,0,0.635,682.0,88.0,1
55610,639893848,123.0,165.0,28.0,0,0.575,682.0,88.0,1
55611,639901848,121.0,154.0,11.0,0,0.52,682.0,88.0,1
55612,639909848,119.0,146.0,-3.0,0,0.469,682.0,88.0,1
55613,639917848,117.0,139.0,-15.0,0,0.475,682.0,88.0,1
55614,639925848,117.0,134.0,-25.0,0,0.477,682.0,88.0,1
55615,639933848,117.0,130.0,-33.0,0,0.473,682.0,88.0,1
55616,639941848,116.0,126.0,-40.0,0,0.479,682.0,88.0,1
55617,639949848,119.0,124.0,-45.0,0,0.468,682.0,88.0,1
55618,639957848,116.0,122.0,-49.0,0,0.467,682.0,88.0,1
55619,639965848,118.0,121.0,-53.0,0,0.477,682.0,88.0,1
55620,640031747,116.0,120.0,-55.0,0,0.46,682.0,88.0,1
55621,640039751,113.0,118.0,-57.0,0,0.465,682.0,88.0,1
55622,640047751,112.0,117.0,-59.0,0,0.47,682.0,88.0,1
55623,640055751,109.0,115.0,-61.0,0,0.475,682.0,88.0,1
55624,640063751,109.0,113.0,-62.0,0,0.467,682.0,88.0,1
55625,640071751,108.0,112.0,-64.0,0,0.483,682.0,88.0,1
55626,640079751,106.0,111.0,-65.0,0,0.475,682.0,88.0,1
55627,640087751,107.0,110.0,-66.0,0,0.478,682.0,88.0,1
55628,640095751,105.0,109.0,-67.0,0,0.481,682.0,88.0,1
55629,640103746,107.0,108.0,-68.0,0,0.483,682.0,88.0,1
55630,640111751,105.0,107.0,-68.0,1,0.473,744.0,80.6,1
55631,640119751,102.0,106.0,-69.0,0,0.486,744.0,80.6,1
55632,640127751,101.0,105.0,-69.0,1,0.476,744.0,80.6,1
55633,640135751,100.0,104.0,-70.0,0,0.489,744.0,80.6,1
55634,640143751,102.0,103.0,-71.0,0,0.491,744.0,80.6,1
55635,640151751,100.0,102.0,-71.0,1,0.481,744.0,80.6,1
55636,640217879,101.0,102.0,-71.0,0,0.481,744.0,80.6,1
55637,640225883,105.0,103.0,-71.0,0,0.481,744.0,80.6,1
55638,640233882,106.0,104.0,-71.0,0,0.481,744.0,80.6,1
55639,640241882,110.0,105.0,-70.0,0,0.489,744.0,80.6,1
55640,640249882,112.0,107.0,-69.0,0,0.487,744.0,80.6,1
55641,640257882,115.0,109.0,-67.0,0,0.493,744.0,80.6,1
55642,640265882,121.0,112.0,-65.0,0,0.488,744.0,80.6,1
55643,640273882,120.0,114.0,-63.0,0,0.483,744.0,80.6,1
55644,640281882,123.0,116.0,-60.0,0,0.486,744.0,80.6,1
55645,640289882,124.0,118.0,-58.0,0,0.47,744.0,80.6,1
55646,640297882,124.0,119.0,-56.0,0,0.465,744.0,80.6,1
55647,640305882,125.0,121.0,-54.0,0,0.459,744.0,80.6,1
55648,640313882,125.0,122.0,-52.0,0,0.454,744.0,80.6,1
55649,640321882,127.0,123.0,-50.0,0,0.449,744.0,80.6,1
55650,640329880,131.0,125.0,-49.0,0,0.435,744.0,80.6,1
55651,640337882,132.0,127.0,-47.0,0,0.44,744.0,80.6,1
55652,640403977,156.0,134.0,-43.0,0,0.453,744.0,80.6,1
55653,640411978,169.0,142.0,-38.0,0,0.452,744.0,80.6,1
55654,640419978,180.0,151.0,-32.0,0,0.449,744.0,80.6,1
55655,640427978,198.0,163.0,-24.0,0,0.453,744.0,80.6,1
55656,640435978,215.0,175.0,-15.0,0,0.443,744.0,80.6,1
55657,640443978,238.0,191.0,-4.0,0,0.441,744.0,80.6,1
55658,640451978,261.0,208.0,8.0,0,0.48,744.0,80.6,1
55659,640459978,283.0,226.0,22.0,0,0.535,744.0,80.6,1
55660,640467978,307.0,246.0,38.0,0,0.595,744.0,80.6,1
55661,640475978,332.0,267.0,54.0,0,0.637,744.0,80.6,1
55662,640483978,350.0,287.0,72.0,0,0.7,744.0,80.6,1
55663,640491978,367.0,306.0,90.0,0,0.742,744.0,80.6,1
55664,640499978,383.0,325.0,108.0,0,0.78,744.0,80.6,1
55665,640507978,401.0,343.0,125.0,0,0.802,744.0,80.6,1
55666,640515978,410.0,359.0,142.0,0,0.826,744.0,80.6,1
55667,640523978,416.0,373.0,158.0,0,0.836,744.0,80.6,1
55668,640590717,357.0,369.0,168.0,0,0.785,744.0,80.6,1
55669,640598717,339.0,362.0,172.0,0,0.717,744.0,80.6,1
55670,640606717,322.0,352.0,172.0,1,0.67,744.0,80.6,1
55671,640614717,304.0,341.0,168.0,0,0.71,744.0,80.6,1
55672,640622718,288.0,328.0,162.0,0,0.727,744.0,80.6,1
55673,640630717,271.0,314.0,153.0,0,0.75,744.0,80.6,1
55674,640638717,248.0,298.0,142.0,0,0.757,744.0,80.6,1
55675,640646717,233.0,282.0,130.0,0,0.748,744.0,80.6,1
55676,640654720,216.0,266.0,116.0,0,0.742,744.0,80.6,1
55677,640662717,200.0,250.0,101.0,0,0.72,744.0,80.6,1
55678,640670717,186.0,235.0,86.0,0,0.686,744.0,80.6,1
55679,640678717,172.0,219.0,71.0,0,0.649,744.0,80.6,1
55680,640686717,163.0,206.0,57.0,0,0.604,744.0,80.6,1
55681,640694717,151.0,192.0,42.0,0,0.575,744.0,80.6,1
55682,640702717,144.0,181.0,29.0,0,0.523,744.0,80.6,1
55683,640710721,139.0,171.0,16.0,0,0.492,744.0,80.6,1
55684,640777007,123.0,159.0,4.0,0,0.454,744.0,80.6,1
55685,640785011,127.0,151.0,-7.0,0,0.455,744.0,80.6,1
55686,640793007,127.0,145.0,-16.0,0,0.454,744.0,80.6,1
55687,640801011,127.0,141.0,-24.0,0,0.461,744.0,80.6,1
55688,640809012,127.0,138.0,-31.0,0,0.467,744.0,80.6,1
55689,640817011,125.0,135.0,-36.0,0,0.456,744.0,80.6,1
55690,640825011,124.0,132.0,-41.0,0,0.469,744.0,80.6,1
55691,640833012,123.0,130.0,-44.0,0,0.454,744.0,80.6,1
55692,640841011,123.0,128.0,-47.0,0,0.462,744.0,80.6,1
55693,640849012,121.0,126.0,-50.0,0,0.47,744.0,80.6,1
55694,640857011,117.0,124.0,-52.0,0,0.464,744.0,80.6,1
55695,640865007,118.0,123.0,-54.0,0,0.469,744.0,80.6,1
55696,640873009,115.0,121.0,-56.0,0,0.475,744.0,80.6,1
55697,640881012,114.0,119.0,-58.0,0,0.48,744.0,80.6,1
55698,640889011,113.0,118.0,-59.0,0,0.472,744.0,80.6,1
55699,640897011,109.0,116.0,-61.0,0,0.488,744.0,80.6,1
55700,640963437,99.0,112.0,-63.0,0,0.493,744.0,80.6,1
55701,640971442,97.0,108.0,-65.0,0,0.498,744.0,80.6,1
55702,640979441,96.0,105.0,-68.0,0,0.517,744.0,80.6,1
55703,640987441,98.0,103.0,-70.0,0,0.511,744.0,80.6,1
55704,640995441,96.0,102.0,-72.0,0,0.516,744.0,80.6,1
55705,641003441,96.0,100.0,-73.0,0,0.507,744.0,80.6,1
55706,641011441,97.0,99.0,-74.0,0,0.509,744.0,80.6,1
55707,641019441,95.0,98.0,-75.0,0,0.512,744.0,80.6,1
55708,641027442,96.0,98.0,-76.0,0,0.513,744.0,80.6,1
55709,641035442,96.0,97.0,-77.0,0,0.515,744.0,80.6,1
55710,641043441,100.0,98.0,-77.0,1,0.504,760.0,78.9,1
55711,641051442,100.0,98.0,-76.0,0,0.512,760.0,78.9,1
55712,641059441,102.0,99.0,-76.0,1,0.5,760.0,78.9,1
55713,641067441,104.0,100.0,-75.0,0,0.507,760.0,78.9,1
55714,641075441,108.0,102.0,-74.0,0,0.504,760.0,78.9,1
55715,641083441,111.0,104.0,-72.0,0,0.509,760.0,78.9,1
55716,641149614,131.0,111.0,-69.0,0,0.513,760.0,78.9,1
55717,641157616,131.0,116.0,-65.0,0,0.514,760.0,78.9,1
55718,641165617,132.0,120.0,-61.0,0,0.504,760.0,78.9,1
55719,641173615,132.0,123.0,-58.0,0,0.483,760.0,78.9,1
55720,641181616,133.0,125.0,-54.0,0,0.484,760.0,78.9,1
55721,641189616,136.0,128.0,-51.0,0,0.463,760.0,78.9,1
55722,641197616,136.0,130.0,-48.0,0,0.455,760.0,78.9,1
55723,641205616,137.0,132.0,-45.0,0,0.446,760.0,78.9,1
55724,641213615,139.0,133.0,-43.0,0,0.428,760.0,78.9,1
55725,641221616,140.0,135.0,-40.0,0,0.431,760.0,78.9,1
55726,641229616,144.0,137.0,-38.0,0,0.413,760.0,78.9,1
55727,641237616,144.0,139.0,-36.0,0,0.407,760.0,78.9,1
55728,641245617,153.0,142.0,-33.0,0,0.411,760.0,78.9,1
55729,641253616,159.0,146.0,-30.0,0,0.402,760.0,78.9,1
55730,641261616,169.0,152.0,-26.0,0,0.404,760.0,78.9,1
55731,641269616,183.0,159.0,-21.0,0,0.404,760.0,78.9,1
55732,641336564,353.0,206.0,-4.0,0,0.513,760.0,78.9,1
55733,641344563,372.0,246.0,19.0,0,0.606,760.0,78.9,1
55734,641352565,389.0,281.0,45.0,0,0.685,760.0,78.9,1
55735,641360565,401.0,310.0,72.0,0,0.756,760.0,78.9,1
55736,641368565,412.0,335.0,98.0,0,0.81,760.0,78.9,1
55737,641376566,416.0,354.0,122.0,0,0.845,760.0,78.9,1
55738,641384565,420.0,370.0,143.0,0,0.859,760.0,78.9,1
55739,641392566,417.0,382.0,161.0,0,0.858,760.0,78.9,1
55740,641400565,415.0,390.0,176.0,0,0.845,760.0,78.9,1
55741,641408566,408.0,394.0,187.0,0,0.812,760.0,78.9,1
55742,641416565,398.0,395.0,195.0,0,0.781,760.0,78.9,1
55743,641424566,383.0,392.0,199.0,0,0.734,760.0,78.9,1
55744,641432565,373.0,388.0,201.0,0,0.71,760.0,78.9,1
55745,641440565,358.0,380.0,200.0,1,0.696,760.0,78.9,1
55746,641448565,344.0,372.0,196.0,0,0.726,760.0,78.9,1
55747,641456565,326.0,361.0,189.0,0,0.755,760.0,78.9,1
55748,641522763,178.0,316.0,172.0,0,0.841,760.0,78.9,1
55749,641530768,166.0,280.0,149.0,0,0.848,760.0,78.9,1
55750,641538768,156.0,250.0,124.0,0,0.814,760.0,78.9,1
55751,641546768,148.0,225.0,99.0,0,0.762,760.0,78.9,1
55752,641554768,140.0,204.0,75.0,0,0.701,760.0,78.9,1
55753,641562768,135.0,188.0,53.0,0,0.636,760.0,78.9,1
55754,641570768,127.0,173.0,34.0,0,0.57,760.0,78.9,1
55755,641578767,124.0,161.0,16.0,0,0.52,760.0,78.9,1
55756,641586768,123.0,152.0,1.0,0,0.482,760.0,78.9,1
55757,641594768,118.0,144.0,-12.0,0,0.492,760.0,78.9,1
55758,641602768,117.0,137.0,-23.0,0,0.497,760.0,78.9,1
55759,641610768,117.0,132.0,-32.0,0,0.497,760.0,78.9,1
55760,641618768,116.0,128.0,-40.0,0,0.506,760.0,78.9,1
55761,641626768,118.0,126.0,-46.0,0,0.498,760.0,78.9,1
55762,641634768,116.0,123.0,-51.0,0,0.5,760.0,78.9,1
55763,641642768,119.0,122.0,-54.0,0,0.485,760.0,78.9,1
55764,641709378,114.0,120.0,-57.0,0,0.492,760.0,78.9,1
55765,641717379,113.0,119.0,-60.0,0,0.5,760.0,78.9,1
55766,641725380,112.0,117.0,-62.0,0,0.494,760.0,78.9,1
55767,641733380,109.0,115.0,-64.0,0,0.499,760.0,78.9,1
55768,641741380,108.0,113.0,-66.0,0,0.504,760.0,78.9,1
55769,641749380,105.0,111.0,-67.0,0,0.496,760.0,78.9,1
55770,641757379,104.0,110.0,-69.0,0,0.511,760.0,78.9,1
55771,641765380,106.0,109.0,-70.0,0,0.502,760.0,78.9,1
55772,641773379,104.0,108.0,-71.0,0,0.504,760.0,78.9,1
55773,641781380,104.0,107.0,-72.0,0,0.506,760.0,78.9,1
55774,641789380,103.0,106.0,-73.0,0,0.508,760.0,78.9,1
55775,641797379,99.0,104.0,-74.0,0,0.51,760.0,78.9,1
55776,641805380,101.0,103.0,-74.0,1,0.499,760.0,78.9,1
55777,641813380,100.0,103.0,-75.0,0,0.511,760.0,78.9,1
55778,641821380,99.0,102.0,-75.0,1,0.499,760.0,78.9,1
55779,641829380,98.0,101.0,-76.0,0,0.511,760.0,78.9,1
55780,641895872,97.0,100.0,-76.0,1,0.499,760.0,78.9,1
55781,641903876,103.0,101.0,-76.0,0,0.498,760.0,78.9,1
55782,641911876,104.0,101.0,-76.0,0,0.497,760.0,78.9,1
55783,641919877,106.0,103.0,-75.0,0,0.504,760.0,78.9,1
55784,641927877,109.0,104.0,-74.0,0,0.501,760.0,78.9,1
55785,641935876,111.0,106.0,-73.0,0,0.498,760.0,78.9,1
55786,641943876,113.0,108.0,-71.0,0,0.503,760.0,78.9,1
55787,641951876,116.0,110.0,-69.0,0,0.497,760.0,78.9,1
55788,641959876,117.0,111.0,-67.0,0,0.491,760.0,78.9,1
55789,641967876,119.0,113.0,-65.0,0,0.485,760.0,78.9,1
55790,641975877,119.0,115.0,-63.0,0,0.479,760.0,78.9,1
55791,641983877,121.0,116.0,-61.0,0,0.473,760.0,78.9,1
55792,641991877,123.0,118.0,-59.0,0,0.467,760.0,78.9,1
55793,641999876,121.0,119.0,-58.0,0,0.453,760.0,78.9,1
55794,642007876,124.0,120.0,-56.0,0,0.458,760.0,78.9,1
55795,642015876,124.0,121.0,-54.0,0,0.452,760.0,78.9,1
55796,642082355,144.0,126.0,-51.0,0,0.455,760.0,78.9,1
55797,642090357,151.0,132.0,-48.0,0,0.447,760.0,78.9,1
55798,642098357,163.0,140.0,-43.0,0,0.458,760.0,78.9,1
55799,642106357,174.0,148.0,-37.0,0,0.455,760.0,78.9,1
55800,642114357,189.0,158.0,-30.0,0,0.451,760.0,78.9,1
55801,642122357,207.0,170.0,-21.0,0,0.453,760.0,78.9,1
55802,642130357,228.0,184.0,-11.0,0,0.443,760.0,78.9,1
55803,642138357,247.0,199.0,0.0,0,0.454,760.0,78.9,1
55804,642146357,272.0,217.0,13.0,0,0.505,760.0,78.9,1
55805,642154357,295.0,236.0,28.0,0,0.56,760.0,78.9,1
55806,642162356,316.0,255.0,44.0,0,0.608,760.0,78.9,1
55807,642170358,336.0,275.0,61.0,0,0.657,760.0,78.9,1
55808,642178357,353.0,294.0,78.0,0,0.697,760.0,78.9,1
55809,642186357,372.0,313.0,95.0,0,0.733,760.0,78.9,1
55810,642194357,383.0,330.0,112.0,0,0.766,760.0,78.9,1
55811,642202357,394.0,345.0,128.0,0,0.784,760.0,78.9,1
55812,642268461,355.0,348.0,140.0,0,0.762,760.0,78.9,1
55813,642276465,340.0,346.0,148.0,0,0.727,760.0,78.9,1
55814,642284463,326.0,341.0,152.0,0,0.683,760.0,78.9,1
55815,642292464,310.0,333.0,152.0,1,0.636,760.0,78.9,1
55816,642300464,293.0,324.0,149.0,0,0.664,760.0,78.9,1
55817,642308463,276.0,312.0,144.0,0,0.678,760.0,78.9,1
55818,642316464,260.0,299.0,136.0,0,0.7,760.0,78.9,1
55819,642324464,243.0,286.0,126.0,0,0.704,760.0,78.9,1
55820,642332465,227.0,272.0,115.0,0,0.693,760.0,78.9,1
55821,642340464,212.0,257.0,103.0,0,0.678,760.0,78.9,1
55822,642348464,197.0,243.0,90.0,0,0.658,760.0,78.9,1
55823,642356464,184.0,228.0,76.0,0,0.634,760.0,78.9,1
55824,642364464,172.0,215.0,63.0,0,0.591,760.0,78.9,1
55825,642372464,164.0,202.0,50.0,0,0.558,760.0,78.9,1
55826,642380464,154.0,191.0,37.0,0,0.525,760.0,78.9,1
55827,642388464,147.0,180.0,25.0,0,0.486,760.0,78.9,1
55828,642454965,126.0,167.0,12.0,0,0.467,760.0,78.9,1
55829,642462966,125.0,157.0,0.0,0,0.461,760.0,78.9,1
55830,642470966,124.0,149.0,-10.0,0,0.462,760.0,78.9,1
55831,642478967,124.0,143.0,-19.0,0,0.472,760.0,78.9,1
55832,642486966,124.0,138.0,-27.0,0,0.48,760.0,78.9,1
55833,642494967,121.0,134.0,-34.0,0,0.486,760.0,78.9,1
55834,642502966,120.0,131.0,-39.0,0,0.475,760.0,78.9,1
55835,642510966,117.0,127.0,-44.0,0,0.487,760.0,78.9,1
55836,642518966,116.0,125.0,-48.0,0,0.486,760.0,78.9,1
55837,642526966,116.0,123.0,-52.0,0,0.496,760.0,78.9,1
55838,642534966,113.0,120.0,-55.0,0,0.492,760.0,78.9,1
55839,642542967,112.0,118.0,-57.0,0,0.485,760.0,78.9,1
55840,642550966,108.0,116.0,-60.0,0,0.503,760.0,78.9,1
55841,642558966,105.0,113.0,-62.0,0,0.496,760.0,78.9,1
55842,642566966,104.0,111.0,-64.0,0,0.501,760.0,78.9,1
55843,642574966,102.0,109.0,-66.0,0,0.505,760.0,78.9,1
55844,642641505,92.0,105.0,-69.0,0,0.522,760.0,78.9,1
55845,642649509,93.0,102.0,-71.0,0,0.515,760.0,78.9,1
55846,642657509,92.0,99.0,-74.0,0,0.532,760.0,78.9,1
55847,642665508,94.0,98.0,-75.0,0,0.511,760.0,78.9,1
55848,642673509,92.0,97.0,-77.0,0,0.525,760.0,78.9,1
55849,642681509,93.0,96.0,-78.0,0,0.516,760.0,78.9,1
55850,642689509,96.0,96.0,-79.0,0,0.517,760.0,78.9,1
55851,642697509,97.0,96.0,-79.0,1,0.505,761.0,78.8,1
55852,642705509,97.0,96.0,-79.0,0,0.504,761.0,78.8,1
55853,642713509,99.0,97.0,-79.0,0,0.503,761.0,78.8,1
55854,642721509,100.0,98.0,-78.0,0,0.51,761.0,78.8,1
55855,642729509,103.0,99.0,-77.0,0,0.507,761.0,78.8,1
55856,642737509,101.0,99.0,-76.0,0,0.503,761.0,78.8,1
55857,642745509,105.0,101.0,-75.0,0,0.5,761.0,78.8,1
55858,642753509,105.0,102.0,-74.0,0,0.496,761.0,78.8,1
55859,642761509,107.0,103.0,-72.0,0,0.501,761.0,78.8,1
55860,642827792,114.0,106.0,-71.0,0,0.487,761.0,78.8,1
55861,642835794,116.0,108.0,-68.0,0,0.501,761.0,78.8,1
55862,642843796,119.0,111.0,-66.0,0,0.484,761.0,78.8,1
55863,642851796,123.0,114.0,-63.0,0,0.488,761.0,78.8,1
55864,642859797,125.0,117.0,-61.0,0,0.47,761.0,78.8,1
55865,642867796,136.0,121.0,-57.0,0,0.484,761.0,78.8,1
55866,642875796,141.0,126.0,-53.0,0,0.474,761.0,78.8,1
55867,642883796,152.0,132.0,-49.0,0,0.463,761.0,78.8,1
55868,642891796,165.0,140.0,-43.0,0,0.473,761.0,78.8,1
55869,642899796,179.0,150.0,-36.0,0,0.468,761.0,78.8,1
55870,642907794,197.0,161.0,-28.0,0,0.461,761.0,78.8,1
55871,642915796,214.0,174.0,-19.0,0,0.452,761.0,78.8,1
55872,642923796,236.0,189.0,-8.0,0,0.451,761.0,78.8,1
55873,642931796,259.0,206.0,5.0,0,0.484,761.0,78.8,1
55874,642939796,278.0,223.0,19.0,0,0.526,761.0,78.8,1
55875,642947796,300.0,242.0,34.0,0,0.571,761.0,78.8,1
55876,643014617,372.0,274.0,54.0,0,0.658,761.0,78.8,1
55877,643022620,367.0,296.0,74.0,0,0.706,761.0,78.8,1
55878,643030621,362.0,312.0,93.0,0,0.741,761.0,78.8,1
55879,643038621,353.0,322.0,109.0,0,0.749,761.0,78.8,1
55880,643046621,344.0,327.0,121.0,0,0.731,761.0,78.8,1
55881,643054621,326.0,327.0,130.0,0,0.711,761.0,78.8,1
55882,643062622,313.0,324.0,135.0,0,0.67,761.0,78.8,1
55883,643070622,299.0,318.0,136.0,0,0.624,761.0,78.8,1
55884,643078621,282.0,309.0,135.0,1,0.62,761.0,78.8,1
55885,643086621,266.0,299.0,130.0,0,0.657,761.0,78.8,1
55886,643094621,246.0,286.0,123.0,0,0.667,761.0,78.8,1
55887,643102622,229.0,272.0,114.0,0,0.672,761.0,78.8,1
55888,643110622,212.0,257.0,104.0,0,0.661,761.0,78.8,1
55889,643118621,195.0,242.0,91.0,0,0.664,761.0,78.8,1
55890,643126621,182.0,228.0,78.0,0,0.632,761.0,78.8,1
55891,643134621,168.0,213.0,65.0,0,0.599,761.0,78.8,1
55892,643200817,109.0,188.0,48.0,0,0.592,761.0,78.8,1
55893,643208819,109.0,169.0,31.0,0,0.55,761.0,78.8,1
55894,643216820,108.0,154.0,14.0,0,0.511,761.0,78.8,1
55895,643224820,111.0,144.0,-1.0,0,0.491,761.0,78.8,1
55896,643232820,109.0,135.0,-14.0,0,0.501,761.0,78.8,1
55897,643240820,110.0,129.0,-24.0,0,0.493,761.0,78.8,1
55898,643248819,112.0,125.0,-33.0,0,0.503,761.0,78.8,1
55899,643256820,111.0,122.0,-40.0,0,0.497,761.0,78.8,1
55900,643264820,112.0,119.0,-46.0,0,0.501,761.0,78.8,1
55901,643272820,112.0,118.0,-51.0,0,0.501,761.0,78.8,1
55902,643280820,109.0,115.0,-54.0,0,0.486,761.0,78.8,1
55903,643288820,109.0,114.0,-57.0,0,0.493,761.0,78.8,1
55904,643296820,108.0,112.0,-60.0,0,0.5,761.0,78.8,1
55905,643304820,109.0,112.0,-61.0,0,0.48,761.0,78.8,1
55906,643312820,108.0,111.0,-63.0,0,0.495,761.0,78.8,1
55907,643320820,107.0,110.0,-64.0,0,0.487,761.0,78.8,1
55908,643387218,99.0,107.0,-65.0,0,0.489,761.0,78.8,1
55909,643395220,95.0,104.0,-67.0,0,0.503,761.0,78.8,1
55910,643403222,95.0,102.0,-69.0,0,0.508,761.0,78.8,1
55911,643411222,94.0,100.0,-70.0,0,0.498,761.0,78.8,1
55912,643419222,92.0,98.0,-72.0,0,0.513,761.0,78.8,1
55913,643427222,94.0,97.0,-73.0,0,0.503,761.0,78.8,1
55914,643435222,92.0,96.0,-74.0,0,0.505,761.0,78.8,1
55915,643443222,95.0,96.0,-75.0,0,0.506,761.0,78.8,1
55916,643451222,95.0,96.0,-76.0,0,0.507,761.0,78.8,1
55917,643459222,96.0,96.0,-76.0,1,0.495,761.0,78.8,1
55918,643467222,98.0,96.0,-75.0,0,0.503,761.0,78.8,1
55919,643475222,100.0,97.0,-75.0,1,0.491,761.0,78.8,1
55920,643483222,101.0,98.0,-74.0,0,0.5,761.0,78.8,1
55921,643491222,102.0,99.0,-73.0,0,0.496,761.0,78.8,1
55922,643499222,103.0,100.0,-72.0,0,0.493,761.0,78.8,1
55923,643507222,107.0,102.0,-71.0,0,0.49,761.0,78.8,1
55924,643573359,123.0,107.0,-68.0,0,0.505,761.0,78.8,1
55925,643581358,125.0,111.0,-65.0,0,0.497,761.0,78.8,1
55926,643589358,127.0,115.0,-61.0,0,0.498,761.0,78.8,1
55927,643597363,133.0,119.0,-57.0,0,0.487,761.0,78.8,1
55928,643605361,140.0,124.0,-53.0,0,0.476,761.0,78.8,1
55929,643613359,147.0,130.0,-49.0,0,0.465,761.0,78.8,1
55930,643621363,155.0,136.0,-43.0,0,0.475,761.0,78.8,1
55931,643629363,168.0,144.0,-37.0,0,0.459,761.0,78.8,1
55932,643637363,181.0,153.0,-31.0,0,0.443,761.0,78.8,1
55933,643645363,200.0,164.0,-22.0,0,0.46,761.0,78.8,1
55934,643653363,217.0,177.0,-13.0,0,0.439,761.0,78.8,1
55935,643661363,240.0,192.0,-2.0,0,0.467,761.0,78.8,1
55936,643669363,263.0,209.0,11.0,0,0.52,761.0,78.8,1
55937,643677363,280.0,227.0,25.0,0,0.565,761.0,78.8,1
55938,643685363,304.0,245.0,40.0,0,0.613,761.0,78.8,1
55939,643693363,324.0,264.0,56.0,0,0.663,761.0,78.8,1
55940,643760533,383.0,293.0,75.0,0,0.732,761.0,78.8,1
55941,643768537,379.0,314.0,95.0,0,0.782,761.0,78.8,1
55942,643776537,370.0,328.0,112.0,0,0.792,761.0,78.8,1
55943,643784537,362.0,336.0,127.0,0,0.799,761.0,78.8,1
55944,643792537,349.0,339.0,138.0,0,0.772,761.0,78.8,1
55945,643800537,335.0,338.0,145.0,0,0.731,761.0,78.8,1
55946,643808537,321.0,334.0,149.0,0,0.696,761.0,78.8,1
55947,643816537,302.0,326.0,149.0,1,0.646,761.0,78.8,1
55948,643824536,286.0,316.0,146.0,0,0.676,761.0,78.8,1
55949,643832537,267.0,304.0,141.0,0,0.692,761.0,78.8,1
55950,643840538,248.0,291.0,132.0,0,0.728,761.0,78.8,1
55951,643848537,232.0,277.0,122.0,0,0.721,761.0,78.8,1
55952,643856538,215.0,262.0,111.0,0,0.71,761.0,78.8,1
55953,643864537,200.0,247.0,98.0,0,0.703,761.0,78.8,1
55954,643872537,185.0,232.0,84.0,0,0.68,761.0,78.8,1
55955,643880537,169.0,217.0,70.0,0,0.644,761.0,78.8,1
55956,643946476,117.0,192.0,53.0,0,0.626,761.0,78.8,1
55957,643954481,117.0,174.0,36.0,0,0.581,761.0,78.8,1
55958,643962481,115.0,160.0,20.0,0,0.533,761.0,78.8,1
55959,643970481,118.0,150.0,5.0,0,0.489,761.0,78.8,1
55960,643978481,116.0,141.0,-8.0,0,0.49,761.0,78.8,1
55961,643986481,118.0,136.0,-18.0,0,0.481,761.0,78.8,1
55962,643994481,118.0,131.0,-27.0,0,0.491,761.0,78.8,1
55963,644002481,117.0,128.0,-34.0,0,0.485,761.0,78.8,1
55964,644010481,119.0,126.0,-40.0,0,0.488,761.0,78.8,1
55965,644018481,117.0,124.0,-44.0,0,0.474,761.0,78.8,1
55966,644026481,117.0,122.0,-48.0,0,0.485,761.0,78.8,1
55967,644034481,116.0,121.0,-50.0,0,0.466,761.0,78.8,1
55968,644042481,114.0,119.0,-53.0,0,0.485,761.0,78.8,1
55969,644050481,116.0,118.0,-55.0,0,0.479,761.0,78.8,1
55970,644058481,112.0,117.0,-56.0,0,0.47,761.0,78.8,1
55971,644066481,112.0,116.0,-58.0,0,0.486,761.0,78.8,1
55972,644132662,107.0,114.0,-59.0,0,0.477,761.0,78.8,1
55973,644140666,105.0,111.0,-61.0,0,0.494,761.0,78.8,1
55974,644148666,105.0,110.0,-62.0,0,0.484,761.0,78.8,1
55975,644156666,104.0,108.0,-63.0,0,0.487,761.0,78.8,1
55976,644164667,104.0,107.0,-64.0,0,0.489,761.0,78.8,1
55977,644172667,104.0,107.0,-65.0,0,0.491,761.0,78.8,1
55978,644180666,104.0,106.0,-66.0,0,0.492,761.0,78.8,1
55979,644188667,107.0,106.0,-66.0,1,0.481,761.0,78.8,1
55980,644196662,105.0,106.0,-66.0,0,0.48,761.0,78.8,1
55981,644204662,108.0,106.0,-66.0,0,0.479,761.0,78.8,1
55982,644212666,109.0,107.0,-66.0,0,0.478,761.0,78.8,1
55983,644220662,109.0,108.0,-65.0,0,0.486,761.0,78.8,1
55984,644228666,112.0,109.0,-64.0,0,0.482,761.0,78.8,1
55985,644236667,112.0,109.0,-63.0,0,0.478,761.0,78.8,1
55986,644244667,113.0,110.0,-62.0,0,0.475,761.0,78.8,1
55987,644252669,116.0,112.0,-61.0,0,0.471,761.0,78.8,1
55988,644318758,120.0,114.0,-60.0,0,0.468,761.0,78.8,1
55989,644326761,124.0,116.0,-58.0,0,0.474,761.0,78.8,1
55990,644334762,124.0,118.0,-56.0,0,0.468,761.0,78.8,1
55991,644342762,125.0,120.0,-54.0,0,0.462,761.0,78.8,1
55992,644350762,132.0,123.0,-51.0,0,0.465,761.0,78.8,1
55993,644358762,135.0,126.0,-49.0,0,0.447,761.0,78.8,1
55994,644366762,144.0,130.0,-45.0,0,0.46,761.0,78.8,1
55995,644374762,153.0,136.0,-41.0,0,0.449,761.0,78.8,1
55996,644382762,166.0,143.0,-37.0,0,0.437,761.0,78.8,1
55997,644390762,183.0,153.0,-30.0,0,0.457,761.0,78.8,1
55998,644398762,199.0,164.0,-22.0,0,0.449,761.0,78.8,1
55999,644406762,221.0,178.0,-13.0,0,0.439,761.0,78.8,1
56000,644414762,242.0,193.0,-2.0,0,0.466,761.0,78.8,1
56001,644422762,269.0,212.0,11.0,0,0.521,761.0,78.8,1
56002,644430763,293.0,231.0,26.0,0,0.58,761.0,78.8,1
56003,644438763,314.0,251.0,42.0,0,0.633,761.0,78.8,1
56004,644505762,390.0,285.0,63.0,0,0.723,761.0,78.8,1
56005,644513762,383.0,309.0,85.0,0,0.78,761.0,78.8,1
56006,644521762,378.0,326.0,105.0,0,0.81,761.0,78.8,1
56007,644529762,368.0,336.0,121.0,0,0.808,761.0,78.8,1
56008,644537762,356.0,341.0,135.0,0,0.809,761.0,78.8,1
56009,644545762,345.0,342.0,144.0,0,0.763,761.0,78.8,1
56010,644553762,328.0,338.0,149.0,0,0.716,761.0,78.8,1
56011,644561762,314.0,333.0,151.0,0,0.679,761.0,78.8,1
56012,644569766,296.0,324.0,150.0,1,0.664,761.0,78.8,1
56013,644577763,279.0,313.0,145.0,0,0.706,761.0,78.8,1
56014,644585762,261.0,300.0,138.0,0,0.72,761.0,78.8,1
56015,644593762,243.0,286.0,129.0,0,0.73,761.0,78.8,1
56016,644601762,224.0,271.0,118.0,0,0.733,761.0,78.8,1
56017,644609762,207.0,256.0,106.0,0,0.719,761.0,78.8,1
56018,644617762,190.0,240.0,92.0,0,0.708,761.0,78.8,1
56019,644625762,179.0,225.0,78.0,0,0.674,761.0,78.8,1
56020,644692380,106.0,196.0,60.0,0,0.661,761.0,78.8,1
56021,644700379,104.0,174.0,40.0,0,0.621,761.0,78.8,1
56022,644708380,106.0,157.0,22.0,0,0.561,761.0,78.8,1
56023,644716380,104.0,144.0,5.0,0,0.512,761.0,78.8,1
56024,644724380,105.0,135.0,-10.0,0,0.509,761.0,78.8,1
56025,644732380,107.0,128.0,-22.0,0,0.508,761.0,78.8,1
56026,644740380,108.0,123.0,-32.0,0,0.511,761.0,78.8,1
56027,644748379,108.0,120.0,-40.0,0,0.508,761.0,78.8,1
56028,644756380,108.0,117.0,-47.0,0,0.514,761.0,78.8,1
56029,644764379,108.0,115.0,-52.0,0,0.503,761.0,78.8,1
56030,644772380,108.0,113.0,-56.0,0,0.502,761.0,78.8,1
56031,644780379,105.0,111.0,-59.0,0,0.498,761.0,78.8,1
56032,644788384,105.0,110.0,-62.0,0,0.506,761.0,78.8,1
56033,644796381,103.0,108.0,-64.0,0,0.499,761.0,78.8,1
56034,644804381,103.0,107.0,-66.0,0,0.504,761.0,78.8,1
56035,644812380,103.0,106.0,-67.0,0,0.496,761.0,78.8,1
56036,644878424,83.0,100.0,-70.0,0,0.526,761.0,78.8,1
56037,644886425,83.0,96.0,-72.0,0,0.52,761.0,78.8,1
56038,644894425,80.0,92.0,-75.0,0,0.539,761.0,78.8,1
56039,644902425,81.0,89.0,-78.0,0,0.546,761.0,78.8,1
56040,644910426,79.0,87.0,-81.0,0,0.553,761.0,78.8,1
56041,644918425,77.0,85.0,-83.0,0,0.545,761.0,78.8,1
56042,644926425,78.0,83.0,-85.0,0,0.55,761.0,78.8,1
56043,644934424,78.0,82.0,-86.0,0,0.54,761.0,78.8,1
56044,644942424,76.0,80.0,-88.0,0,0.556,761.0,78.8,1
56045,644950425,78.0,80.0,-89.0,0,0.546,761.0,78.8,1
56046,644958425,78.0,79.0,-89.0,1,0.534,761.0,78.8,1
56047,644966424,79.0,79.0,-90.0,0,0.547,761.0,78.8,1
56048,644974425,80.0,79.0,-90.0,1,0.535,761.0,78.8,1
56049,644982425,80.0,80.0,-89.0,0,0.543,761.0,78.8,1
56050,644990425,82.0,80.0,-89.0,1,0.531,769.0,78.0,1
56051,644998429,80.0,80.0,-88.0,0,0.539,769.0,78.0,1
56052,645064654,96.0,84.0,-87.0,0,0.536,769.0,78.0,1
56053,645072655,100.0,88.0,-84.0,0,0.551,769.0,78.0,1
56054,645080655,101.0,91.0,-82.0,0,0.534,769.0,78.0,1
56055,645088655,114.0,97.0,-78.0,0,0.548,769.0,78.0,1
56056,645096655,124.0,103.0,-73.0,0,0.548,769.0,78.0,1
56057,645104655,141.0,112.0,-67.0,0,0.546,769.0,78.0,1
56058,645112655,160.0,124.0,-59.0,0,0.551,769.0,78.0,1
56059,645120655,180.0,138.0,-50.0,0,0.54,769.0,78.0,1
56060,645128655,204.0,154.0,-39.0,0,0.536,769.0,78.0,1
56061,645136655,229.0,172.0,-25.0,0,0.532,769.0,78.0,1
56062,645144655,255.0,192.0,-10.0,0,0.504,769.0,78.0,1
56063,645152656,284.0,214.0,7.0,0,0.54,769.0,78.0,1
56064,645160655,307.0,237.0,26.0,0,0.604,769.0,78.0,1
56065,645168655,329.0,259.0,45.0,0,0.657,769.0,78.0,1
56066,645176655,346.0,280.0,65.0,0,0.719,769.0,78.0,1
56067,645184655,362.0,300.0,84.0,0,0.761,769.0,78.0,1
56068,645251116,367.0,316.0,102.0,0,0.795,769.0,78.0,1
56069,645259118,352.0,325.0,118.0,0,0.81,769.0,78.0,1
56070,645267118,341.0,329.0,129.0,0,0.778,769.0,78.0,1
56071,645275118,324.0,328.0,137.0,0,0.753,769.0,78.0,1
56072,645283119,306.0,322.0,141.0,0,0.707,769.0,78.0,1
56073,645291118,287.0,314.0,141.0,1,0.656,769.0,78.0,1
56074,645299119,269.0,303.0,137.0,0,0.7,769.0,78.0,1
56075,645307118,250.0,290.0,131.0,0,0.718,769.0,78.0,1
56076,645315120,231.0,276.0,122.0,0,0.743,769.0,78.0,1
56077,645323118,212.0,260.0,111.0,0,0.747,769.0,78.0,1
56078,645331118,195.0,244.0,99.0,0,0.734,769.0,78.0,1
56079,645339118,178.0,228.0,85.0,0,0.722,769.0,78.0,1
56080,645347118,165.0,213.0,71.0,0,0.687,769.0,78.0,1
56081,645355118,153.0,198.0,57.0,0,0.649,769.0,78.0,1
56082,645363118,141.0,185.0,43.0,0,0.61,769.0,78.0,1
56083,645371118,131.0,172.0,29.0,0,0.57,769.0,78.0,1
56084,645437730,100.0,154.0,14.0,0,0.539,769.0,78.0,1
56085,645445734,100.0,141.0,0.0,0,0.494,769.0,78.0,1
56086,645453734,100.0,131.0,-13.0,0,0.495,769.0,78.0,1
56087,645461732,101.0,124.0,-24.0,0,0.5,769.0,78.0,1
56088,645469734,103.0,119.0,-34.0,0,0.515,769.0,78.0,1
56089,645477734,102.0,115.0,-41.0,0,0.496,769.0,78.0,1
56090,645485734,103.0,112.0,-48.0,0,0.515,769.0,78.0,1
56091,645493732,102.0,109.0,-53.0,0,0.503,769.0,78.0,1
56092,645501734,100.0,107.0,-57.0,0,0.501,769.0,78.0,1
56093,645509734,101.0,106.0,-60.0,0,0.496,769.0,78.0,1
56094,645517734,99.0,104.0,-63.0,0,0.504,769.0,78.0,1
56095,645525734,96.0,102.0,-65.0,0,0.497,769.0,78.0,1
56096,645533734,95.0,100.0,-67.0,0,0.503,769.0,78.0,1
56097,645541734,92.0,98.0,-69.0,0,0.508,769.0,78.0,1
56098,645549730,92.0,97.0,-70.0,0,0.499,769.0,78.0,1
56099,645557733,89.0,95.0,-72.0,0,0.516,769.0,78.0,1
56100,645624307,81.0,92.0,-74.0,0,0.521,769.0,78.0,1
56101,645632308,83.0,89.0,-76.0,0,0.527,769.0,78.0,1
56102,645640307,81.0,87.0,-77.0,0,0.517,769.0,78.0,1
56103,645648311,86.0,87.0,-79.0,0,0.534,769.0,78.0,1
56104,645656307,84.0,86.0,-80.0,0,0.525,769.0,78.0,1
56105,645664306,87.0,86.0,-80.0,1,0.513,769.0,78.0,1
56106,645672306,89.0,87.0,-80.0,0,0.513,769.0,78.0,1
56107,645680306,91.0,88.0,-80.0,0,0.512,769.0,78.0,1
56108,645688306,93.0,89.0,-79.0,0,0.522,769.0,78.0,1
56109,645696307,96.0,91.0,-78.0,0,0.519,769.0,78.0,1
56110,645704307,99.0,93.0,-76.0,0,0.526,769.0,78.0,1
56111,645712306,103.0,95.0,-74.0,0,0.52,769.0,78.0,1
56112,645720306,107.0,98.0,-72.0,0,0.515,769.0,78.0,1
56113,645728306,110.0,101.0,-69.0,0,0.52,769.0,78.0,1
56114,645736307,109.0,103.0,-67.0,0,0.501,769.0,78.0,1
56115,645744306,108.0,104.0,-64.0,0,0.506,769.0,78.0,1
56116,645810869,123.0,109.0,-61.0,0,0.498,761.0,78.8,1
56117,645818870,124.0,112.0,-58.0,0,0.489,761.0,78.8,1
56118,645826871,136.0,118.0,-54.0,0,0.491,761.0,78.8,1
56119,645834871,145.0,125.0,-49.0,0,0.491,761.0,78.8,1
56120,645842871,160.0,133.0,-43.0,0,0.487,761.0,78.8,1
56121,645850871,177.0,144.0,-36.0,0,0.481,761.0,78.8,1
56122,645858871,194.0,156.0,-27.0,0,0.483,761.0,78.8,1
56123,645866872,219.0,171.0,-17.0,0,0.47,761.0,78.8,1
56124,645874871,244.0,189.0,-4.0,0,0.473,761.0,78.8,1
56125,645882871,270.0,209.0,10.0,0,0.517,761.0,78.8,1
56126,645890871,296.0,230.0,27.0,0,0.587,761.0,78.8,1
56127,645898869,320.0,252.0,44.0,0,0.633,761.0,78.8,1
56128,645906871,346.0,275.0,63.0,0,0.699,761.0,78.8,1
56129,645914871,366.0,297.0,83.0,0,0.756,761.0,78.8,1
56130,645922871,382.0,317.0,103.0,0,0.8,761.0,78.8,1
56131,645930871,397.0,337.0,122.0,0,0.829,761.0,78.8,1
56132,645997196,370.0,345.0,138.0,0,0.83,761.0,78.8,1
56133,646005200,355.0,347.0,149.0,0,0.794,761.0,78.8,1
56134,646013200,336.0,345.0,156.0,0,0.753,761.0,78.8,1
56135,646021199,316.0,338.0,159.0,0,0.704,761.0,78.8,1
56136,646029200,300.0,328.0,158.0,1,0.678,761.0,78.8,1
56137,646037200,279.0,316.0,154.0,0,0.711,761.0,78.8,1
56138,646045200,260.0,303.0,147.0,0,0.742,761.0,78.8,1
56139,646053199,239.0,287.0,137.0,0,0.766,761.0,78.8,1
56140,646061200,219.0,271.0,125.0,0,0.771,761.0,78.8,1
56141,646069199,204.0,255.0,112.0,0,0.758,761.0,78.8,1
56142,646077200,184.0,237.0,97.0,0,0.747,761.0,78.8,1
56143,646085200,170.0,221.0,82.0,0,0.713,761.0,78.8,1
56144,646093199,155.0,205.0,67.0,0,0.676,761.0,78.8,1
56145,646101200,140.0,189.0,51.0,0,0.642,761.0,78.8,1
56146,646109199,132.0,175.0,36.0,0,0.592,761.0,78.8,1
56147,646117200,120.0,162.0,21.0,0,0.552,761.0,78.8,1
56148,646183576,95.0,146.0,6.0,0,0.514,761.0,78.8,1
56149,646191580,94.0,133.0,-8.0,0,0.489,761.0,78.8,1
56150,646199580,93.0,123.0,-21.0,0,0.51,761.0,78.8,1
56151,646207576,93.0,116.0,-32.0,0,0.517,761.0,78.8,1
56152,646215577,93.0,110.0,-41.0,0,0.517,761.0,78.8,1
56153,646223578,93.0,106.0,-49.0,0,0.526,761.0,78.8,1
56154,646231576,92.0,103.0,-55.0,0,0.516,761.0,78.8,1
56155,646239576,89.0,99.0,-61.0,0,0.532,761.0,78.8,1
56156,646247577,89.0,97.0,-65.0,0,0.517,761.0,78.8,1
56157,646255577,88.0,95.0,-69.0,0,0.528,761.0,78.8,1
56158,646263576,86.0,93.0,-72.0,0,0.523,761.0,78.8,1
56159,646271577,85.0,91.0,-75.0,0,0.53,761.0,78.8,1
56160,646279577,83.0,89.0,-77.0,0,0.523,761.0,78.8,1
56161,646287576,83.0,87.0,-79.0,0,0.528,761.0,78.8,1
56162,646295578,83.0,86.0,-80.0,0,0.518,761.0,78.8,1
56163,646303577,82.0,85.0,-81.0,0,0.52,761.0,78.8,1
56164,646370018,82.0,85.0,-82.0,0,0.523,761.0,78.8,1
56165,646378023,80.0,83.0,-83.0,0,0.525,761.0,78.8,1
56166,646386023,81.0,83.0,-84.0,0,0.527,761.0,78.8,1
56167,646394023,80.0,82.0,-84.0,1,0.516,761.0,78.8,1
56168,646402023,82.0,82.0,-84.0,0,0.515,761.0,78.8,1
56169,646410023,84.0,83.0,-84.0,0,0.515,761.0,78.8,1
56170,646418021,85.0,83.0,-84.0,0,0.515,761.0,78.8,1
56171,646426022,87.0,84.0,-83.0,0,0.524,761.0,78.8,1
56172,646434023,89.0,85.0,-82.0,0,0.522,761.0,78.8,1
56173,646442023,92.0,87.0,-80.0,0,0.529,761.0,78.8,1
56174,646450023,95.0,89.0,-79.0,0,0.514,761.0,78.8,1
56175,646458023,97.0,91.0,-77.0,0,0.521,761.0,78.8,1
56176,646466023,100.0,93.0,-75.0,0,0.516,761.0,78.8,1
56177,646474023,102.0,95.0,-73.0,0,0.511,761.0,78.8,1
56178,646482023,105.0,98.0,-70.0,0,0.515,761.0,78.8,1
56179,646490023,108.0,100.0,-68.0,0,0.498,761.0,78.8,1
56180,646556457,124.0,106.0,-64.0,0,0.512,761.0,78.8,1
56181,646564458,132.0,112.0,-60.0,0,0.501,761.0,78.8,1
56182,646572458,140.0,119.0,-54.0,0,0.511,761.0,78.8,1
56183,646580458,151.0,127.0,-48.0,0,0.495,761.0,78.8,1
56184,646588458,167.0,136.0,-41.0,0,0.489,761.0,78.8,1
56185,646596458,184.0,148.0,-33.0,0,0.481,761.0,78.8,1
56186,646604458,205.0,162.0,-23.0,0,0.479,761.0,78.8,1
56187,646612458,231.0,179.0,-11.0,0,0.473,761.0,78.8,1
56188,646620458,259.0,198.0,3.0,0,0.496,761.0,78.8,1
56189,646628458,285.0,219.0,19.0,0,0.554,761.0,78.8,1
56190,646636458,311.0,241.0,36.0,0,0.606,761.0,78.8,1
56191,646644457,338.0,265.0,55.0,0,0.671,761.0,78.8,1
56192,646652458,361.0,288.0,75.0,0,0.728,761.0,78.8,1
56193,646660458,380.0,310.0,96.0,0,0.781,761.0,78.8,1
56194,646668458,399.0,332.0,116.0,0,0.813,761.0,78.8,1
56195,646676458,412.0,351.0,136.0,0,0.844,761.0,78.8,1
56196,646742727,391.0,361.0,152.0,0,0.834,761.0,78.8,1
56197,646750728,373.0,364.0,165.0,0,0.82,761.0,78.8,1
56198,646758728,353.0,361.0,172.0,0,0.757,761.0,78.8,1
56199,646766728,336.0,355.0,176.0,0,0.722,761.0,78.8,1
56200,646774728,319.0,346.0,175.0,1,0.685,761.0,78.8,1
56201,646782728,299.0,335.0,171.0,0,0.716,761.0,78.8,1
56202,646790728,276.0,321.0,164.0,0,0.746,761.0,78.8,1
56203,646798728,253.0,304.0,154.0,0,0.771,761.0,78.8,1
56204,646806728,235.0,287.0,142.0,0,0.777,761.0,78.8,1
56205,646814728,213.0,269.0,128.0,0,0.776,761.0,78.8,1
56206,646822728,196.0,252.0,113.0,0,0.758,761.0,78.8,1
56207,646830728,178.0,234.0,97.0,0,0.734,761.0,78.8,1
56208,646838730,160.0,216.0,80.0,0,0.703,761.0,78.8,1
56209,646846728,147.0,199.0,63.0,0,0.661,761.0,78.8,1
56210,646854730,131.0,183.0,46.0,0,0.617,761.0,78.8,1
56211,646862728,122.0,168.0,30.0,0,0.568,761.0,78.8,1
56212,646928866,98.0,151.0,14.0,0,0.528,761.0,78.8,1
56213,646936871,97.0,138.0,-1.0,0,0.485,761.0,78.8,1
56214,646944871,99.0,128.0,-15.0,0,0.504,761.0,78.8,1
56215,646952871,98.0,121.0,-26.0,0,0.499,761.0,78.8,1
56216,646960871,99.0,116.0,-36.0,0,0.513,761.0,78.8,1
56217,646968866,102.0,112.0,-44.0,0,0.51,761.0,78.8,1
56218,646976869,100.0,109.0,-50.0,0,0.501,761.0,78.8,1
56219,646984871,100.0,107.0,-55.0,0,0.501,761.0,78.8,1
56220,646992871,100.0,105.0,-59.0,0,0.499,761.0,78.8,1
56221,647000871,97.0,103.0,-62.0,0,0.495,761.0,78.8,1
56222,647008871,100.0,103.0,-65.0,0,0.502,761.0,78.8,1
56223,647016871,96.0,101.0,-67.0,0,0.495,761.0,78.8,1
56224,647024871,94.0,99.0,-69.0,0,0.5,761.0,78.8,1
56225,647032869,92.0,98.0,-70.0,0,0.491,761.0,78.8,1
56226,647040871,92.0,96.0,-72.0,0,0.508,761.0,78.8,1
56227,647048871,89.0,94.0,-73.0,0,0.498,761.0,78.8,1
56228,647115260,79.0,91.0,-75.0,0,0.515,761.0,78.8,1
56229,647123266,80.0,88.0,-77.0,0,0.52,761.0,78.8,1
56230,647131261,80.0,86.0,-79.0,0,0.524,761.0,78.8,1
56231,647139261,77.0,84.0,-81.0,0,0.529,761.0,78.8,1
56232,647147261,80.0,83.0,-82.0,0,0.52,761.0,78.8,1
56233,647155262,80.0,82.0,-83.0,0,0.522,761.0,78.8,1
56234,647163261,81.0,82.0,-84.0,0,0.524,761.0,78.8,1
56235,647171262,82.0,82.0,-84.0,1,0.513,761.0,78.8,1
56236,647179261,83.0,82.0,-84.0,0,0.513,761.0,78.8,1
56237,647187261,87.0,83.0,-83.0,0,0.522,761.0,78.8,1
56238,647195261,88.0,84.0,-83.0,1,0.51,761.0,78.8,1
56239,647203261,91.0,86.0,-81.0,0,0.528,761.0,78.8,1
56240,647211262,94.0,88.0,-80.0,0,0.514,761.0,78.8,1
56241,647219261,95.0,90.0,-78.0,0,0.521,761.0,78.8,1
56242,647227262,100.0,92.0,-76.0,0,0.516,761.0,78.8,1
56243,647235262,103.0,95.0,-74.0,0,0.511,761.0,78.8,1
56244,647301567,119.0,101.0,-70.0,0,0.525,761.0,78.8,1
56245,647309571,119.0,105.0,-66.0,0,0.514,761.0,78.8,1
56246,647317566,118.0,108.0,-63.0,0,0.495,761.0,78.8,1
56247,647325571,119.0,111.0,-59.0,0,0.497,761.0,78.8,1
56248,647333571,120.0,113.0,-56.0,0,0.477,761.0,78.8,1
56249,647341571,124.0,116.0,-53.0,0,0.469,761.0,78.8,1
56250,647349571,126.0,118.0,-50.0,0,0.461,761.0,78.8,1
56251,647357571,132.0,122.0,-46.0,0,0.463,761.0,78.8,1
56252,647365571,140.0,126.0,-43.0,0,0.443,761.0,78.8,1
56253,647373571,153.0,133.0,-38.0,0,0.455,761.0,78.8,1
56254,647381571,168.0,141.0,-32.0,0,0.452,761.0,78.8,1
56255,647389571,186.0,152.0,-25.0,0,0.447,761.0,78.8,1
56256,647397571,207.0,165.0,-16.0,0,0.45,761.0,78.8,1
56257,647405571,232.0,182.0,-5.0,0,0.448,761.0,78.8,1
56258,647413571,260.0,201.0,8.0,0,0.492,761.0,78.8,1
56259,647421571,289.0,222.0,23.0,0,0.548,761.0,78.8,1
56260,647487912,440.0,275.0,49.0,0,0.681,761.0,78.8,1
56261,647495914,441.0,315.0,79.0,0,0.767,761.0,78.8,1
56262,647503916,444.0,346.0,109.0,0,0.831,761.0,78.8,1
56263,647511916,435.0,368.0,136.0,0,0.869,761.0,78.8,1
56264,647519917,427.0,382.0,159.0,0,0.882,761.0,78.8,1
56265,647527916,414.0,390.0,177.0,0,0.868,761.0,78.8,1
56266,647535915,400.0,392.0,190.0,0,0.833,761.0,78.8,1
56267,647543916,383.0,390.0,199.0,0,0.795,761.0,78.8,1
56268,647551914,368.0,385.0,203.0,0,0.737,761.0,78.8,1
56269,647559916,352.0,377.0,203.0,1,0.692,761.0,78.8,1
56270,647567916,333.0,366.0,200.0,0,0.722,761.0,78.8,1
56271,647575913,313.0,353.0,193.0,0,0.764,761.0,78.8,1
56272,647583916,291.0,338.0,184.0,0,0.78,761.0,78.8,1
56273,647591916,268.0,321.0,173.0,0,0.791,761.0,78.8,1
56274,647599916,245.0,303.0,159.0,0,0.806,761.0,78.8,1
56275,647607916,226.0,284.0,143.0,0,0.802,761.0,78.8,1
56276,647674127,108.0,241.0,120.0,0,0.81,761.0,78.8,1
56277,647682133,101.0,207.0,94.0,0,0.77,761.0,78.8,1
56278,647690132,99.0,181.0,67.0,0,0.71,761.0,78.8,1
56279,647698132,94.0,160.0,42.0,0,0.641,761.0,78.8,1
56280,647706132,93.0,144.0,20.0,0,0.573,761.0,78.8,1
56281,647714132,92.0,131.0,1.0,0,0.512,761.0,78.8,1
56282,647722132,91.0,121.0,-16.0,0,0.525,761.0,78.8,1
56283,647730132,92.0,114.0,-30.0,0,0.531,761.0,78.8,1
56284,647738132,93.0,109.0,-41.0,0,0.527,761.0,78.8,1
56285,647746132,92.0,105.0,-50.0,0,0.527,761.0,78.8,1
56286,647754132,91.0,102.0,-57.0,0,0.521,761.0,78.8,1
56287,647762128,90.0,99.0,-63.0,0,0.524,761.0,78.8,1
56288,647770132,88.0,96.0,-68.0,0,0.524,761.0,78.8,1
56289,647778132,86.0,94.0,-72.0,0,0.522,761.0,78.8,1
56290,647786130,89.0,93.0,-75.0,0,0.518,761.0,78.8,1
56291,647794129,84.0,90.0,-77.0,0,0.511,761.0,78.8,1
56292,647860239,70.0,86.0,-80.0,0,0.529,761.0,78.8,1
56293,647868245,70.0,82.0,-83.0,0,0.536,761.0,78.8,1
56294,647876245,68.0,78.0,-86.0,0,0.542,761.0,78.8,1
56295,647884245,69.0,76.0,-89.0,0,0.549,761.0,78.8,1
56296,647892245,69.0,74.0,-91.0,0,0.542,761.0,78.8,1
56297,647900245,68.0,73.0,-93.0,0,0.546,761.0,78.8,1
56298,647908245,71.0,72.0,-94.0,0,0.537,761.0,78.8,1
56299,647916245,68.0,71.0,-95.0,0,0.539,761.0,78.8,1
56300,647924245,71.0,71.0,-96.0,0,0.541,761.0,78.8,1
56301,647932245,70.0,71.0,-96.0,1,0.53,761.0,78.8,1
56302,647940245,70.0,71.0,-96.0,0,0.529,761.0,78.8,1
56303,647948245,72.0,71.0,-96.0,0,0.529,761.0,78.8,1
56304,647956239,71.0,71.0,-96.0,0,0.529,761.0,78.8,1
56305,647964244,75.0,72.0,-95.0,0,0.536,761.0,78.8,1
56306,647972244,76.0,73.0,-94.0,0,0.534,761.0,78.8,1
56307,647980240,77.0,74.0,-93.0,0,0.531,761.0,78.8,1
56308,648046372,96.0,79.0,-90.0,0,0.546,761.0,78.8,1
56309,648054374,99.0,84.0,-87.0,0,0.539,761.0,78.8,1
56310,648062374,101.0,88.0,-83.0,0,0.54,761.0,78.8,1
56311,648070374,105.0,92.0,-80.0,0,0.522,761.0,78.8,1
56312,648078374,107.0,96.0,-76.0,0,0.524,761.0,78.8,1
56313,648086374,109.0,99.0,-72.0,0,0.514,761.0,78.8,1
56314,648094374,112.0,102.0,-68.0,0,0.504,761.0,78.8,1
56315,648102374,115.0,105.0,-64.0,0,0.494,761.0,78.8,1
56316,648110374,118.0,108.0,-61.0,0,0.476,761.0,78.8,1
56317,648118375,119.0,111.0,-57.0,0,0.477,761.0,78.8,1
56318,648126374,122.0,114.0,-54.0,0,0.459,761.0,78.8,1
56319,648134374,121.0,115.0,-51.0,0,0.451,761.0,78.8,1
56320,648142374,122.0,117.0,-48.0,0,0.444,761.0,78.8,1
56321,648150374,127.0,119.0,-46.0,0,0.428,761.0,78.8,1
56322,648158376,131.0,122.0,-43.0,0,0.431,761.0,78.8,1
56323,648166374,137.0,126.0,-40.0,0,0.424,761.0,78.8,1
56324,648232672,282.0,164.0,-27.0,0,0.506,761.0,78.8,1
56325,648240672,305.0,198.0,-8.0,0,0.515,761.0,78.8,1
56326,648248672,332.0,230.0,15.0,0,0.575,761.0,78.8,1
56327,648256672,356.0,261.0,39.0,0,0.636,761.0,78.8,1
56328,648264672,378.0,289.0,65.0,0,0.707,761.0,78.8,1
56329,648272672,398.0,316.0,90.0,0,0.76,761.0,78.8,1
56330,648280672,412.0,339.0,115.0,0,0.81,761.0,78.8,1
56331,648288672,425.0,360.0,138.0,0,0.837,761.0,78.8,1
56332,648296672,431.0,377.0,159.0,0,0.853,761.0,78.8,1
56333,648304672,435.0,391.0,178.0,0,0.859,761.0,78.8,1
56334,648312672,436.0,402.0,194.0,0,0.847,761.0,78.8,1
56335,648320672,431.0,409.0,207.0,0,0.828,761.0,78.8,1
56336,648328672,426.0,413.0,217.0,0,0.802,761.0,78.8,1
56337,648336672,416.0,414.0,223.0,0,0.76,761.0,78.8,1
56338,648344672,404.0,411.0,227.0,0,0.739,761.0,78.8,1
56339,648352672,391.0,406.0,228.0,0,0.706,761.0,78.8,1
56340,648418903,224.0,362.0,216.0,1,0.818,761.0,78.8,1
56341,648426905,202.0,323.0,195.0,0,0.876,761.0,78.8,1
56342,648434905,186.0,290.0,171.0,0,0.867,761.0,78.8,1
56343,648442904,169.0,261.0,145.0,0,0.841,761.0,78.8,1
56344,648450906,153.0,235.0,119.0,0,0.796,761.0,78.8,1
56345,648458904,137.0,211.0,94.0,0,0.742,761.0,78.8,1
56346,648466904,127.0,191.0,70.0,0,0.683,761.0,78.8,1
56347,648474905,115.0,172.0,48.0,0,0.622,761.0,78.8,1
56348,648482905,108.0,157.0,27.0,0,0.568,761.0,78.8,1
56349,648490904,100.0,143.0,9.0,0,0.509,761.0,78.8,1
56350,648498904,93.0,131.0,-8.0,0,0.497,761.0,78.8,1
56351,648506905,89.0,121.0,-22.0,0,0.5,761.0,78.8,1
56352,648514905,82.0,111.0,-35.0,0,0.519,761.0,78.8,1
56353,648522905,84.0,105.0,-46.0,0,0.523,761.0,78.8,1
56354,648530906,86.0,100.0,-55.0,0,0.523,761.0,78.8,1
56355,648538905,84.0,96.0,-63.0,0,0.531,761.0,78.8,1
56356,648605038,88.0,94.0,-68.0,0,0.51,761.0,78.8,1
56357,648613041,87.0,92.0,-73.0,0,0.521,761.0,78.8,1
56358,648621039,84.0,90.0,-76.0,0,0.507,761.0,78.8,1
56359,648629041,85.0,89.0,-79.0,0,0.513,761.0,78.8,1
56360,648637040,83.0,88.0,-81.0,0,0.508,761.0,78.8,1
56361,648645040,83.0,87.0,-83.0,0,0.512,761.0,78.8,1
56362,648653040,81.0,85.0,-84.0,0,0.504,761.0,78.8,1
56363,648661039,80.0,84.0,-86.0,0,0.518,761.0,78.8,1
56364,648669040,83.0,84.0,-86.0,1,0.499,761.0,78.8,1
56365,648677039,83.0,84.0,-87.0,0,0.511,761.0,78.8,1
56366,648685039,83.0,83.0,-87.0,1,0.501,761.0,78.8,1
56367,648693043,81.0,83.0,-87.0,0,0.501,761.0,78.8,1
56368,648701039,84.0,83.0,-87.0,0,0.501,761.0,78.8,1
56369,648709040,84.0,83.0,-87.0,0,0.501,761.0,78.8,1
56370,648717044,83.0,83.0,-86.0,0,0.509,761.0,78.8,1
56371,648725039,83.0,83.0,-86.0,1,0.499,761.0,78.8,1
56372,648791354,91.0,85.0,-85.0,0,0.507,760.0,78.9,1
56373,648799356,91.0,87.0,-84.0,0,0.504,760.0,78.9,1
56374,648807356,94.0,88.0,-82.0,0,0.51,760.0,78.9,1
56375,648815357,95.0,90.0,-80.0,0,0.506,760.0,78.9,1
56376,648823357,96.0,91.0,-79.0,0,0.494,760.0,78.9,1
56377,648831357,100.0,93.0,-77.0,0,0.499,760.0,78.9,1
56378,648839357,102.0,96.0,-74.0,0,0.502,760.0,78.9,1
56379,648847357,107.0,98.0,-72.0,0,0.488,760.0,78.9,1
56380,648855357,108.0,101.0,-69.0,0,0.491,760.0,78.9,1
56381,648863357,110.0,103.0,-67.0,0,0.476,760.0,78.9,1
56382,648871357,112.0,105.0,-64.0,0,0.479,760.0,78.9,1
56383,648879357,113.0,107.0,-62.0,0,0.464,760.0,78.9,1
56384,648887357,116.0,109.0,-59.0,0,0.467,760.0,78.9,1
56385,648895357,116.0,111.0,-57.0,0,0.452,760.0,78.9,1
56386,648903357,116.0,112.0,-55.0,0,0.447,760.0,78.9,1
56387,648911358,119.0,114.0,-53.0,0,0.441,760.0,78.9,1
56388,648977437,122.0,116.0,-50.0,0,0.444,760.0,78.9,1
56389,648985441,127.0,118.0,-48.0,0,0.428,760.0,78.9,1
56390,648993441,139.0,123.0,-45.0,0,0.431,760.0,78.9,1
56391,649001442,151.0,130.0,-41.0,0,0.432,760.0,78.9,1
56392,649009441,169.0,140.0,-35.0,0,0.44,760.0,78.9,1
56393,649017442,184.0,150.0,-28.0,0,0.435,760.0,78.9,1
56394,649025442,209.0,165.0,-18.0,0,0.446,760.0,78.9,1
56395,649033441,232.0,181.0,-7.0,0,0.433,760.0,78.9,1
56396,649041442,255.0,199.0,6.0,0,0.474,760.0,78.9,1
56397,649049441,287.0,220.0,21.0,0,0.526,760.0,78.9,1
56398,649057441,312.0,242.0,38.0,0,0.582,760.0,78.9,1
56399,649065441,339.0,266.0,57.0,0,0.642,760.0,78.9,1
56400,649073437,363.0,289.0,77.0,0,0.694,760.0,78.9,1
56401,649081442,382.0,312.0,97.0,0,0.736,760.0,78.9,1
56402,649089441,400.0,333.0,118.0,0,0.781,760.0,78.9,1
56403,649097442,412.0,352.0,137.0,0,0.797,760.0,78.9,1
56404,649163904,366.0,356.0,152.0,0,0.784,760.0,78.9,1
56405,649171905,351.0,355.0,161.0,0,0.735,760.0,78.9,1
56406,649179905,329.0,348.0,166.0,0,0.695,760.0,78.9,1
56407,649187904,312.0,340.0,167.0,0,0.653,760.0,78.9,1
56408,649195905,292.0,328.0,164.0,1,0.668,760.0,78.9,1
56409,649203905,275.0,315.0,158.0,0,0.692,760.0,78.9,1
56410,649211905,249.0,299.0,148.0,0,0.72,760.0,78.9,1
56411,649219904,225.0,281.0,136.0,0,0.721,760.0,78.9,1
56412,649227906,208.0,263.0,123.0,0,0.708,760.0,78.9,1
56413,649235904,188.0,245.0,108.0,0,0.697,760.0,78.9,1
56414,649243904,171.0,227.0,91.0,0,0.678,760.0,78.9,1
56415,649251905,156.0,210.0,75.0,0,0.634,760.0,78.9,1
56416,649259905,140.0,193.0,58.0,0,0.603,760.0,78.9,1
56417,649267904,127.0,177.0,42.0,0,0.558,760.0,78.9,1
56418,649275904,116.0,162.0,26.0,0,0.523,760.0,78.9,1
56419,649283904,108.0,149.0,11.0,0,0.482,760.0,78.9,1
56420,649350025,87.0,134.0,-4.0,0,0.475,760.0,78.9,1
56421,649358028,87.0,123.0,-18.0,0,0.494,760.0,78.9,1
56422,649366029,89.0,114.0,-30.0,0,0.5,760.0,78.9,1
56423,649374028,89.0,108.0,-40.0,0,0.502,760.0,78.9,1
56424,649382027,89.0,104.0,-49.0,0,0.512,760.0,78.9,1
56425,649390028,92.0,101.0,-56.0,0,0.507,760.0,78.9,1
56426,649398030,91.0,98.0,-61.0,0,0.497,760.0,78.9,1
56427,649406028,92.0,97.0,-65.0,0,0.496,760.0,78.9,1
56428,649414028,92.0,96.0,-68.0,0,0.492,760.0,78.9,1
56429,649422029,90.0,94.0,-71.0,0,0.499,760.0,78.9,1
56430,649430028,89.0,93.0,-73.0,0,0.494,760.0,78.9,1
56431,649438030,87.0,92.0,-75.0,0,0.498,760.0,78.9,1
56432,649446028,90.0,91.0,-76.0,0,0.49,760.0,78.9,1
56433,649454029,87.0,90.0,-77.0,0,0.493,760.0,78.9,1
56434,649462028,86.0,89.0,-78.0,0,0.495,760.0,78.9,1
56435,649470028,88.0,89.0,-78.0,1,0.485,760.0,78.9,1
56436,649536409,86.0,88.0,-79.0,0,0.497,760.0,78.9,1
56437,649544410,87.0,88.0,-79.0,1,0.487,760.0,78.9,1
56438,649552413,90.0,88.0,-79.0,0,0.487,760.0,78.9,1
56439,649560413,91.0,89.0,-78.0,0,0.494,760.0,78.9,1
56440,649568414,94.0,90.0,-78.0,1,0.484,760.0,78.9,1
56441,649576413,94.0,91.0,-77.0,0,0.491,760.0,78.9,1
56442,649584413,99.0,93.0,-75.0,0,0.496,760.0,78.9,1
56443,649592413,98.0,94.0,-74.0,0,0.483,760.0,78.9,1
56444,649600413,99.0,95.0,-72.0,0,0.488,760.0,78.9,1
56445,649608413,103.0,97.0,-71.0,0,0.476,760.0,78.9,1
56446,649616413,105.0,99.0,-69.0,0,0.48,760.0,78.9,1
56447,649624413,108.0,101.0,-67.0,0,0.475,760.0,78.9,1
56448,649632413,108.0,103.0,-64.0,0,0.478,760.0,78.9,1
56449,649640413,108.0,104.0,-63.0,0,0.455,760.0,78.9,1
56450,649648413,113.0,106.0,-60.0,0,0.468,760.0,78.9,1
56451,649656413,114.0,108.0,-58.0,0,0.452,760.0,78.9,1
56452,649722400,127.0,113.0,-55.0,0,0.455,760.0,78.9,1
56453,649730402,126.0,116.0,-52.0,0,0.447,760.0,78.9,1
56454,649738402,124.0,118.0,-49.0,0,0.44,760.0,78.9,1
56455,649746402,132.0,121.0,-46.0,0,0.432,760.0,78.9,1
56456,649754402,137.0,125.0,-43.0,0,0.424,760.0,78.9,1
56457,649762402,144.0,130.0,-39.0,0,0.425,760.0,78.9,1
56458,649770402,155.0,136.0,-35.0,0,0.415,760.0,78.9,1
56459,649778402,168.0,144.0,-29.0,0,0.423,760.0,78.9,1
56460,649786402,185.0,154.0,-23.0,0,0.409,760.0,78.9,1
56461,649794402,205.0,166.0,-14.0,0,0.423,760.0,78.9,1
56462,649802402,228.0,181.0,-4.0,0,0.425,760.0,78.9,1
56463,649810402,255.0,199.0,8.0,0,0.471,760.0,78.9,1
56464,649818402,280.0,219.0,23.0,0,0.533,760.0,78.9,1
56465,649826402,305.0,240.0,39.0,0,0.579,760.0,78.9,1
56466,649834402,331.0,262.0,56.0,0,0.626,760.0,78.9,1
56467,649842402,353.0,284.0,75.0,0,0.684,760.0,78.9,1
56468,649909138,413.0,315.0,97.0,0,0.749,760.0,78.9,1
56469,649917142,407.0,337.0,119.0,0,0.789,760.0,78.9,1
56470,649925142,396.0,352.0,138.0,0,0.798,760.0,78.9,1
56471,649933142,380.0,359.0,153.0,0,0.785,760.0,78.9,1
56472,649941142,363.0,360.0,164.0,0,0.758,760.0,78.9,1
56473,649949142,347.0,357.0,171.0,0,0.722,760.0,78.9,1
56474,649957142,327.0,349.0,173.0,0,0.668,760.0,78.9,1
56475,649965142,309.0,340.0,172.0,1,0.655,760.0,78.9,1
56476,649973142,288.0,327.0,167.0,0,0.69,760.0,78.9,1
56477,649981143,269.0,313.0,159.0,0,0.711,760.0,78.9,1
56478,649989142,251.0,298.0,149.0,0,0.717,760.0,78.9,1
56479,649997142,228.0,281.0,137.0,0,0.718,760.0,78.9,1
56480,650005142,209.0,264.0,123.0,0,0.712,760.0,78.9,1
56481,650013142,192.0,246.0,108.0,0,0.692,760.0,78.9,1
56482,650021143,172.0,228.0,92.0,0,0.667,760.0,78.9,1
56483,650029142,160.0,212.0,75.0,0,0.637,760.0,78.9,1
56484,650095181,100.0,185.0,56.0,0,0.609,760.0,78.9,1
56485,650103183,100.0,164.0,37.0,0,0.566,760.0,78.9,1
56486,650111183,101.0,149.0,18.0,0,0.525,760.0,78.9,1
56487,650119183,99.0,137.0,2.0,0,0.474,760.0,78.9,1
56488,650127183,100.0,128.0,-13.0,0,0.495,760.0,78.9,1
56489,650135183,100.0,121.0,-25.0,0,0.492,760.0,78.9,1
56490,650143183,100.0,116.0,-34.0,0,0.481,760.0,78.9,1
56491,650151184,100.0,112.0,-42.0,0,0.489,760.0,78.9,1
56492,650159183,100.0,109.0,-49.0,0,0.494,760.0,78.9,1
56493,650167183,100.0,107.0,-54.0,0,0.485,760.0,78.9,1
56494,650175183,98.0,105.0,-58.0,0,0.483,760.0,78.9,1
56495,650183183,97.0,103.0,-62.0,0,0.492,760.0,78.9,1
56496,650191183,98.0,102.0,-64.0,0,0.477,760.0,78.9,1
56497,650199183,96.0,100.0,-66.0,0,0.481,760.0,78.9,1
56498,650207183,96.0,99.0,-68.0,0,0.486,760.0,78.9,1
56499,650215182,92.0,98.0,-70.0,0,0.49,760.0,78.9,1
56500,650281468,82.0,94.0,-72.0,0,0.495,760.0,78.9,1
56501,650289470,80.0,90.0,-74.0,0,0.499,760.0,78.9,1
56502,650297470,78.0,87.0,-76.0,0,0.503,760.0,78.9,1
56503,650305470,79.0,85.0,-78.0,0,0.507,760.0,78.9,1
56504,650313470,78.0,84.0,-80.0,0,0.511,760.0,78.9,1
56505,650321470,77.0,82.0,-82.0,0,0.515,760.0,78.9,1
56506,650329470,79.0,81.0,-83.0,0,0.507,760.0,78.9,1
56507,650337470,80.0,81.0,-84.0,0,0.508,760.0,78.9,1
56508,650345470,83.0,81.0,-84.0,1,0.498,760.0,78.9,1
56509,650353470,84.0,82.0,-84.0,0,0.497,760.0,78.9,1
56510,650361470,85.0,83.0,-83.0,0,0.504,760.0,78.9,1
56511,650369470,90.0,85.0,-82.0,0,0.501,760.0,78.9,1
56512,650377470,89.0,86.0,-81.0,0,0.498,760.0,78.9,1
56513,650385470,94.0,88.0,-80.0,0,0.495,760.0,78.9,1
56514,650393469,97.0,90.0,-78.0,0,0.499,760.0,78.9,1
56515,650401470,99.0,92.0,-76.0,0,0.494,760.0,78.9,1
56516,650467602,119.0,99.0,-72.0,0,0.505,760.0,78.9,1
56517,650475606,119.0,104.0,-68.0,0,0.496,760.0,78.9,1
56518,650483606,120.0,108.0,-64.0,0,0.486,760.0,78.9,1
56519,650491604,123.0,111.0,-60.0,0,0.476,760.0,78.9,1
56520,650499605,123.0,114.0,-56.0,0,0.466,760.0,78.9,1
56521,650507605,124.0,117.0,-53.0,0,0.447,760.0,78.9,1
56522,650515604,124.0,118.0,-49.0,0,0.448,760.0,78.9,1
56523,650523604,127.0,120.0,-47.0,0,0.421,760.0,78.9,1
56524,650531604,127.0,122.0,-44.0,0,0.424,760.0,78.9,1
56525,650539605,133.0,125.0,-41.0,0,0.416,760.0,78.9,1
56526,650547605,139.0,128.0,-38.0,0,0.409,760.0,78.9,1
56527,650555605,148.0,133.0,-35.0,0,0.401,760.0,78.9,1
56528,650563606,160.0,140.0,-30.0,0,0.411,760.0,78.9,1
56529,650571605,176.0,148.0,-25.0,0,0.4,760.0,78.9,1
56530,650579604,195.0,160.0,-17.0,0,0.416,760.0,78.9,1
56531,650587604,217.0,174.0,-8.0,0,0.411,760.0,78.9,1
56532,650654421,420.0,233.0,15.0,0,0.577,760.0,78.9,1
56533,650662423,433.0,282.0,46.0,0,0.677,760.0,78.9,1
56534,650670425,443.0,321.0,78.0,0,0.752,760.0,78.9,1
56535,650678426,444.0,351.0,110.0,0,0.815,760.0,78.9,1
56536,650686425,447.0,374.0,138.0,0,0.847,760.0,78.9,1
56537,650694426,442.0,391.0,163.0,0,0.865,760.0,78.9,1
56538,650702425,436.0,402.0,184.0,0,0.862,760.0,78.9,1
56539,650710425,429.0,408.0,200.0,0,0.836,760.0,78.9,1
56540,650718423,412.0,409.0,211.0,0,0.796,760.0,78.9,1
56541,650726425,399.0,407.0,218.0,0,0.757,760.0,78.9,1
56542,650734423,380.0,400.0,220.0,0,0.704,760.0,78.9,1
56543,650742424,362.0,391.0,219.0,1,0.692,760.0,78.9,1
56544,650750425,346.0,380.0,215.0,0,0.718,760.0,78.9,1
56545,650758425,324.0,366.0,208.0,0,0.742,760.0,78.9,1
56546,650766425,301.0,351.0,197.0,0,0.773,760.0,78.9,1
56547,650774425,284.0,334.0,185.0,0,0.769,760.0,78.9,1
56548,650840395,132.0,285.0,162.0,0,0.825,760.0,78.9,1
56549,650848397,121.0,246.0,135.0,0,0.801,760.0,78.9,1
56550,650856397,109.0,212.0,105.0,0,0.755,760.0,78.9,1
56551,650864397,103.0,186.0,77.0,0,0.689,760.0,78.9,1
56552,650872396,96.0,164.0,50.0,0,0.625,760.0,78.9,1
56553,650880397,91.0,146.0,26.0,0,0.56,760.0,78.9,1
56554,650888396,90.0,133.0,5.0,0,0.501,760.0,78.9,1
56555,650896396,87.0,122.0,-13.0,0,0.514,760.0,78.9,1
56556,650904396,85.0,113.0,-28.0,0,0.52,760.0,78.9,1
56557,650912396,85.0,106.0,-41.0,0,0.53,760.0,78.9,1
56558,650920398,85.0,101.0,-51.0,0,0.523,760.0,78.9,1
56559,650928396,87.0,98.0,-60.0,0,0.533,760.0,78.9,1
56560,650936396,88.0,95.0,-66.0,0,0.517,760.0,78.9,1
56561,650944398,90.0,94.0,-71.0,0,0.518,760.0,78.9,1
56562,650952396,91.0,93.0,-74.0,0,0.505,760.0,78.9,1
56563,650960396,89.0,92.0,-77.0,0,0.511,760.0,78.9,1
56564,651026700,76.0,88.0,-80.0,0,0.517,760.0,78.9,1
56565,651034706,76.0,85.0,-82.0,0,0.512,760.0,78.9,1
56566,651042700,76.0,83.0,-85.0,0,0.527,760.0,78.9,1
56567,651050700,74.0,81.0,-87.0,0,0.522,760.0,78.9,1
56568,651058706,71.0,78.0,-89.0,0,0.525,760.0,78.9,1
56569,651066704,74.0,77.0,-91.0,0,0.529,760.0,78.9,1
56570,651074700,70.0,76.0,-92.0,0,0.521,760.0,78.9,1
56571,651082706,71.0,74.0,-93.0,0,0.523,760.0,78.9,1
56572,651090706,72.0,74.0,-94.0,0,0.524,760.0,78.9,1
56573,651098701,68.0,72.0,-95.0,0,0.526,760.0,78.9,1
56574,651106701,71.0,72.0,-95.0,1,0.516,760.0,78.9,1
56575,651114700,70.0,72.0,-96.0,0,0.527,760.0,78.9,1
56576,651122706,69.0,71.0,-96.0,1,0.517,760.0,78.9,1
56577,651130706,71.0,71.0,-96.0,0,0.516,760.0,78.9,1
56578,651138706,71.0,71.0,-96.0,0,0.515,760.0,78.9,1
56579,651146706,74.0,72.0,-95.0,0,0.521,761.0,78.8,1
56580,651212982,87.0,75.0,-94.0,0,0.518,761.0,78.8,1
56581,651220982,87.0,78.0,-91.0,0,0.53,761.0,78.8,1
56582,651228983,92.0,82.0,-89.0,0,0.516,761.0,78.8,1
56583,651236983,94.0,85.0,-86.0,0,0.518,761.0,78.8,1
56584,651244983,97.0,88.0,-83.0,0,0.511,761.0,78.8,1
56585,651252983,100.0,91.0,-80.0,0,0.504,761.0,78.8,1
56586,651260983,100.0,93.0,-77.0,0,0.497,761.0,78.8,1
56587,651268983,102.0,95.0,-74.0,0,0.49,761.0,78.8,1
56588,651276983,102.0,97.0,-71.0,0,0.483,761.0,78.8,1
56589,651284983,104.0,99.0,-68.0,0,0.475,761.0,78.8,1
56590,651292983,107.0,101.0,-66.0,0,0.46,761.0,78.8,1
56591,651300983,108.0,102.0,-63.0,0,0.462,761.0,78.8,1
56592,651308983,111.0,104.0,-61.0,0,0.447,761.0,78.8,1
56593,651316983,111.0,106.0,-59.0,0,0.442,761.0,78.8,1
56594,651324984,111.0,107.0,-57.0,0,0.436,761.0,78.8,1
56595,651332983,115.0,109.0,-55.0,0,0.431,761.0,78.8,1
56596,651399512,214.0,135.0,-46.0,0,0.482,761.0,78.8,1
56597,651407515,241.0,160.0,-32.0,0,0.501,761.0,78.8,1
56598,651415515,268.0,186.0,-15.0,0,0.492,761.0,78.8,1
56599,651423515,296.0,213.0,5.0,0,0.532,761.0,78.8,1
56600,651431515,327.0,241.0,27.0,0,0.592,761.0,78.8,1
56601,651439516,348.0,267.0,50.0,0,0.65,761.0,78.8,1
56602,651447514,379.0,294.0,73.0,0,0.7,761.0,78.8,1
56603,651455515,397.0,319.0,97.0,0,0.754,761.0,78.8,1
56604,651463513,416.0,342.0,121.0,0,0.797,761.0,78.8,1
56605,651471515,432.0,364.0,143.0,0,0.818,761.0,78.8,1
56606,651479515,440.0,383.0,164.0,0,0.836,761.0,78.8,1
56607,651487514,444.0,397.0,183.0,0,0.84,761.0,78.8,1
56608,651495515,444.0,409.0,199.0,0,0.829,761.0,78.8,1
56609,651503515,440.0,416.0,212.0,0,0.81,761.0,78.8,1
56610,651511515,433.0,420.0,223.0,0,0.796,761.0,78.8,1
56611,651519514,421.0,421.0,229.0,0,0.746,761.0,78.8,1
56612,651585756,266.0,383.0,223.0,1,0.741,761.0,78.8,1
56613,651593756,240.0,348.0,209.0,0,0.809,761.0,78.8,1
56614,651601757,222.0,318.0,189.0,0,0.837,761.0,78.8,1
56615,651609756,203.0,290.0,167.0,0,0.822,761.0,78.8,1
56616,651617756,180.0,263.0,143.0,0,0.797,761.0,78.8,1
56617,651625757,163.0,239.0,119.0,0,0.755,761.0,78.8,1
56618,651633756,150.0,217.0,96.0,0,0.703,761.0,78.8,1
56619,651641756,132.0,197.0,74.0,0,0.65,761.0,78.8,1
56620,651649756,121.0,178.0,52.0,0,0.602,761.0,78.8,1
56621,651657757,108.0,161.0,32.0,0,0.547,761.0,78.8,1
56622,651665756,102.0,147.0,14.0,0,0.496,761.0,78.8,1
56623,651673756,95.0,134.0,-3.0,0,0.484,761.0,78.8,1
56624,651681756,92.0,124.0,-18.0,0,0.497,761.0,78.8,1
56625,651689757,91.0,116.0,-30.0,0,0.495,761.0,78.8,1
56626,651697757,88.0,109.0,-41.0,0,0.509,761.0,78.8,1
56627,651705756,89.0,104.0,-50.0,0,0.509,761.0,78.8,1
56628,651771999,92.0,101.0,-57.0,0,0.504,761.0,78.8,1
56629,651780001,92.0,99.0,-63.0,0,0.508,761.0,78.8,1
56630,651788000,91.0,97.0,-67.0,0,0.497,761.0,78.8,1
56631,651795999,87.0,95.0,-71.0,0,0.506,761.0,78.8,1
56632,651804000,89.0,93.0,-74.0,0,0.503,761.0,78.8,1
56633,651812000,92.0,93.0,-76.0,0,0.498,761.0,78.8,1
56634,651820000,86.0,91.0,-78.0,0,0.502,761.0,78.8,1
56635,651828001,87.0,90.0,-79.0,0,0.495,761.0,78.8,1
56636,651836000,85.0,89.0,-80.0,0,0.496,761.0,78.8,1
56637,651844001,85.0,88.0,-81.0,0,0.498,761.0,78.8,1
56638,651852000,85.0,87.0,-82.0,0,0.5,761.0,78.8,1
56639,651860000,82.0,86.0,-83.0,0,0.502,761.0,78.8,1
56640,651868000,83.0,85.0,-83.0,1,0.493,761.0,78.8,1
56641,651876000,82.0,84.0,-84.0,0,0.503,761.0,78.8,1
56642,651884000,83.0,84.0,-84.0,1,0.494,761.0,78.8,1
56643,651892001,81.0,83.0,-84.0,0,0.494,761.0,78.8,1
56644,651958316,81.0,83.0,-85.0,0,0.504,761.0,78.8,1
56645,651966320,84.0,83.0,-85.0,1,0.495,761.0,78.8,1
56646,651974318,84.0,83.0,-84.0,0,0.501,761.0,78.8,1
56647,651982318,85.0,84.0,-84.0,1,0.491,761.0,78.8,1
56648,651990318,87.0,85.0,-83.0,0,0.497,761.0,78.8,1
56649,651998318,91.0,86.0,-82.0,0,0.494,761.0,78.8,1
56650,652006318,92.0,88.0,-80.0,0,0.498,761.0,78.8,1
56651,652014318,93.0,89.0,-79.0,0,0.486,761.0,78.8,1
56652,652022317,97.0,91.0,-77.0,0,0.49,761.0,78.8,1
56653,652030317,101.0,93.0,-75.0,0,0.485,761.0,78.8,1
56654,652038318,105.0,96.0,-73.0,0,0.48,761.0,78.8,1
56655,652046318,109.0,99.0,-70.0,0,0.482,761.0,78.8,1
56656,652054318,111.0,102.0,-67.0,0,0.475,761.0,78.8,1
56657,652062318,111.0,104.0,-64.0,0,0.468,761.0,78.8,1
56658,652070318,116.0,107.0,-61.0,0,0.46,761.0,78.8,1
56659,652078318,116.0,109.0,-59.0,0,0.445,761.0,78.8,1
56660,652144307,127.0,114.0,-55.0,0,0.455,761.0,78.8,1
56661,652152306,127.0,117.0,-52.0,0,0.437,761.0,78.8,1
56662,652160308,127.0,119.0,-49.0,0,0.43,761.0,78.8,1
56663,652168308,132.0,122.0,-45.0,0,0.43,761.0,78.8,1
56664,652176308,134.0,125.0,-42.0,0,0.413,761.0,78.8,1
56665,652184306,142.0,129.0,-39.0,0,0.405,761.0,78.8,1
56666,652192306,152.0,135.0,-35.0,0,0.406,761.0,78.8,1
56667,652200306,163.0,142.0,-30.0,0,0.406,761.0,78.8,1
56668,652208307,183.0,152.0,-23.0,0,0.413,761.0,78.8,1
56669,652216306,204.0,164.0,-15.0,0,0.408,761.0,78.8,1
56670,652224306,228.0,180.0,-5.0,0,0.428,761.0,78.8,1
56671,652232307,255.0,198.0,8.0,0,0.486,761.0,78.8,1
56672,652240306,284.0,219.0,22.0,0,0.526,761.0,78.8,1
56673,652248306,309.0,241.0,39.0,0,0.59,761.0,78.8,1
56674,652256306,333.0,263.0,57.0,0,0.638,761.0,78.8,1
56675,652264307,355.0,285.0,76.0,0,0.687,761.0,78.8,1
56676,652330980,402.0,314.0,97.0,0,0.742,761.0,78.8,1
56677,652338983,390.0,332.0,118.0,0,0.779,761.0,78.8,1
56678,652346983,377.0,343.0,135.0,0,0.776,761.0,78.8,1
56679,652354983,364.0,348.0,148.0,0,0.758,761.0,78.8,1
56680,652362983,345.0,347.0,157.0,0,0.727,761.0,78.8,1
56681,652370983,328.0,343.0,162.0,0,0.688,761.0,78.8,1
56682,652378983,308.0,334.0,163.0,0,0.646,761.0,78.8,1
56683,652386985,290.0,324.0,160.0,1,0.661,761.0,78.8,1
56684,652394983,271.0,311.0,154.0,0,0.683,761.0,78.8,1
56685,652402983,250.0,296.0,145.0,0,0.701,761.0,78.8,1
56686,652410983,230.0,280.0,134.0,0,0.703,761.0,78.8,1
56687,652418984,210.0,263.0,121.0,0,0.699,761.0,78.8,1
56688,652426984,193.0,246.0,107.0,0,0.681,761.0,78.8,1
56689,652434984,173.0,228.0,92.0,0,0.658,761.0,78.8,1
56690,652442981,156.0,211.0,76.0,0,0.631,761.0,78.8,1
56691,652450983,144.0,195.0,60.0,0,0.594,761.0,78.8,1
56692,652517127,90.0,169.0,41.0,0,0.574,761.0,78.8,1
56693,652525132,92.0,151.0,22.0,0,0.533,761.0,78.8,1
56694,652533132,92.0,136.0,5.0,0,0.483,761.0,78.8,1
56695,652541132,96.0,127.0,-10.0,0,0.487,761.0,78.8,1
56696,652549132,98.0,120.0,-23.0,0,0.496,761.0,78.8,1
56697,652557132,98.0,114.0,-33.0,0,0.488,761.0,78.8,1
56698,652565133,103.0,112.0,-41.0,0,0.485,761.0,78.8,1
56699,652573132,102.0,109.0,-48.0,0,0.491,761.0,78.8,1
56700,652581132,104.0,108.0,-52.0,0,0.469,761.0,78.8,1
56701,652589132,106.0,108.0,-56.0,0,0.478,761.0,78.8,1
56702,652597132,105.0,107.0,-58.0,0,0.462,761.0,78.8,1
56703,652605132,106.0,107.0,-60.0,0,0.467,761.0,78.8,1
56704,652613133,103.0,106.0,-61.0,0,0.46,761.0,78.8,1
56705,652621132,101.0,105.0,-63.0,0,0.474,761.0,78.8,1
56706,652629132,102.0,104.0,-63.0,1,0.455,761.0,78.8,1
56707,652637132,102.0,104.0,-64.0,0,0.466,761.0,78.8,1
56708,652703416,96.0,102.0,-65.0,0,0.468,761.0,78.8,1
56709,652711418,97.0,101.0,-66.0,0,0.47,761.0,78.8,1
56710,652719419,95.0,99.0,-67.0,0,0.472,761.0,78.8,1
56711,652727419,95.0,98.0,-67.0,1,0.463,761.0,78.8,1
56712,652735419,93.0,97.0,-68.0,0,0.474,761.0,78.8,1
56713,652743419,92.0,96.0,-69.0,0,0.476,761.0,78.8,1
56714,652751419,94.0,95.0,-69.0,1,0.466,761.0,78.8,1
56715,652759419,93.0,95.0,-70.0,0,0.477,761.0,78.8,1
56716,652767419,93.0,94.0,-70.0,1,0.467,761.0,78.8,1
56717,652775419,93.0,94.0,-70.0,0,0.467,761.0,78.8,1
56718,652783419,93.0,94.0,-70.0,0,0.466,761.0,78.8,1
56719,652791419,93.0,94.0,-70.0,0,0.465,761.0,78.8,1
56720,652799419,91.0,93.0,-70.0,0,0.464,761.0,78.8,1
56721,652807419,96.0,94.0,-70.0,0,0.463,761.0,78.8,1
56722,652815419,95.0,94.0,-69.0,0,0.47,761.0,78.8,1
56723,652823419,98.0,95.0,-69.0,1,0.459,761.0,78.8,1
56724,652889609,111.0,99.0,-67.0,0,0.473,761.0,78.8,1
56725,652897609,112.0,102.0,-65.0,0,0.468,761.0,78.8,1
56726,652905610,115.0,105.0,-62.0,0,0.47,761.0,78.8,1
56727,652913610,116.0,108.0,-59.0,0,0.463,761.0,78.8,1
56728,652921610,113.0,109.0,-57.0,0,0.447,761.0,78.8,1
56729,652929610,117.0,111.0,-55.0,0,0.441,761.0,78.8,1
56730,652937610,116.0,112.0,-52.0,0,0.444,761.0,78.8,1
56731,652945610,118.0,114.0,-50.0,0,0.428,761.0,78.8,1
56732,652953610,122.0,116.0,-48.0,0,0.422,761.0,78.8,1
56733,652961610,123.0,117.0,-46.0,0,0.417,761.0,78.8,1
56734,652969610,127.0,120.0,-44.0,0,0.411,761.0,78.8,1
56735,652977610,132.0,123.0,-42.0,0,0.406,761.0,78.8,1
56736,652985610,140.0,127.0,-38.0,0,0.417,761.0,78.8,1
56737,652993610,148.0,132.0,-35.0,0,0.399,761.0,78.8,1
56738,653001610,160.0,139.0,-30.0,0,0.41,761.0,78.8,1
56739,653009610,176.0,148.0,-24.0,0,0.408,761.0,78.8,1
56740,653076601,368.0,201.0,-5.0,0,0.508,761.0,78.8,1
56741,653084605,383.0,245.0,21.0,0,0.602,761.0,78.8,1
56742,653092605,402.0,283.0,51.0,0,0.684,761.0,78.8,1
56743,653100605,411.0,314.0,80.0,0,0.745,761.0,78.8,1
56744,653108603,417.0,339.0,108.0,0,0.797,761.0,78.8,1
56745,653116605,421.0,359.0,133.0,0,0.825,761.0,78.8,1
56746,653124606,422.0,374.0,155.0,0,0.837,761.0,78.8,1
56747,653132606,418.0,385.0,174.0,0,0.837,761.0,78.8,1
56748,653140605,411.0,391.0,188.0,0,0.807,761.0,78.8,1
56749,653148604,402.0,394.0,199.0,0,0.786,761.0,78.8,1
56750,653156606,383.0,391.0,205.0,0,0.736,761.0,78.8,1
56751,653164604,374.0,387.0,208.0,0,0.706,761.0,78.8,1
56752,653172605,357.0,380.0,208.0,1,0.675,761.0,78.8,1
56753,653180605,340.0,370.0,204.0,0,0.71,761.0,78.8,1
56754,653188605,322.0,358.0,198.0,0,0.724,761.0,78.8,1
56755,653196605,303.0,345.0,190.0,0,0.735,761.0,78.8,1
56756,653262606,153.0,298.0,170.0,0,0.819,761.0,78.8,1
56757,653270610,140.0,260.0,145.0,0,0.811,761.0,78.8,1
56758,653278610,126.0,228.0,118.0,0,0.772,761.0,78.8,1
56759,653286610,116.0,201.0,90.0,0,0.718,761.0,78.8,1
56760,653294610,109.0,178.0,65.0,0,0.65,761.0,78.8,1
56761,653302610,102.0,160.0,41.0,0,0.591,761.0,78.8,1
56762,653310611,102.0,146.0,20.0,0,0.53,761.0,78.8,1
56763,653318609,98.0,134.0,2.0,0,0.486,761.0,78.8,1
56764,653326610,97.0,125.0,-14.0,0,0.501,761.0,78.8,1
56765,653334610,96.0,118.0,-26.0,0,0.49,761.0,78.8,1
56766,653342610,96.0,113.0,-37.0,0,0.504,761.0,78.8,1
56767,653350610,99.0,109.0,-46.0,0,0.504,761.0,78.8,1
56768,653358610,98.0,107.0,-52.0,0,0.488,761.0,78.8,1
56769,653366608,100.0,105.0,-57.0,0,0.489,761.0,78.8,1
56770,653374610,103.0,105.0,-61.0,0,0.488,761.0,78.8,1
56771,653382611,102.0,104.0,-64.0,0,0.485,761.0,78.8,1
56772,653449017,103.0,104.0,-65.0,0,0.468,761.0,78.8,1
56773,653457017,102.0,103.0,-67.0,0,0.482,761.0,78.8,1
56774,653465017,101.0,103.0,-68.0,0,0.475,761.0,78.8,1
56775,653473017,101.0,102.0,-68.0,1,0.466,761.0,78.8,1
56776,653481017,100.0,102.0,-69.0,0,0.476,761.0,78.8,1
56777,653489017,101.0,102.0,-69.0,1,0.467,761.0,78.8,1
56778,653497017,97.0,100.0,-69.0,0,0.467,761.0,78.8,1
56779,653505016,99.0,100.0,-70.0,0,0.478,761.0,78.8,1
56780,653513018,100.0,100.0,-70.0,1,0.468,761.0,78.8,1
56781,653521017,100.0,100.0,-70.0,0,0.468,761.0,78.8,1
56782,653529017,100.0,100.0,-69.0,0,0.474,761.0,78.8,1
56783,653537017,99.0,100.0,-69.0,1,0.465,761.0,78.8,1
56784,653545017,100.0,100.0,-69.0,0,0.464,761.0,78.8,1
56785,653553017,100.0,100.0,-69.0,0,0.463,761.0,78.8,1
56786,653561017,100.0,100.0,-68.0,0,0.469,761.0,78.8,1
56787,653569017,103.0,101.0,-68.0,1,0.459,761.0,78.8,1
56788,653635353,112.0,103.0,-66.0,0,0.473,761.0,78.8,1
56789,653643357,115.0,106.0,-64.0,0,0.467,761.0,78.8,1
56790,653651357,118.0,109.0,-62.0,0,0.462,761.0,78.8,1
56791,653659357,117.0,111.0,-60.0,0,0.457,761.0,78.8,1
56792,653667357,120.0,113.0,-58.0,0,0.452,761.0,78.8,1
56793,653675357,122.0,115.0,-55.0,0,0.454,761.0,78.8,1
56794,653683357,121.0,117.0,-53.0,0,0.439,761.0,78.8,1
56795,653691357,124.0,118.0,-51.0,0,0.433,761.0,78.8,1
56796,653699357,123.0,120.0,-49.0,0,0.428,761.0,78.8,1
56797,653707357,124.0,121.0,-47.0,0,0.422,761.0,78.8,1
56798,653715357,124.0,121.0,-46.0,0,0.41,761.0,78.8,1
56799,653723357,126.0,123.0,-44.0,0,0.414,761.0,78.8,1
56800,653731357,127.0,124.0,-43.0,0,0.401,761.0,78.8,1
56801,653739357,125.0,124.0,-41.0,0,0.405,761.0,78.8,1
56802,653747357,127.0,125.0,-40.0,0,0.393,761.0,78.8,1
56803,653755357,126.0,125.0,-39.0,0,0.39,761.0,78.8,1
56804,653822276,140.0,129.0,-37.0,0,0.394,761.0,78.8,1
56805,653830278,146.0,133.0,-35.0,0,0.39,761.0,78.8,1
56806,653838278,156.0,138.0,-31.0,0,0.401,761.0,78.8,1
56807,653846279,172.0,147.0,-27.0,0,0.392,761.0,78.8,1
56808,653854278,188.0,157.0,-20.0,0,0.409,761.0,78.8,1
56809,653862278,209.0,169.0,-12.0,0,0.404,761.0,78.8,1
56810,653870278,236.0,185.0,-2.0,0,0.424,761.0,78.8,1
56811,653878279,258.0,203.0,11.0,0,0.48,761.0,78.8,1
56812,653886278,287.0,223.0,25.0,0,0.519,761.0,78.8,1
56813,653894280,316.0,246.0,42.0,0,0.582,761.0,78.8,1
56814,653902278,340.0,269.0,60.0,0,0.629,761.0,78.8,1
56815,653910278,364.0,292.0,79.0,0,0.677,761.0,78.8,1
56816,653918278,383.0,314.0,99.0,0,0.724,761.0,78.8,1
56817,653926278,404.0,336.0,119.0,0,0.76,761.0,78.8,1
56818,653934278,418.0,356.0,139.0,0,0.791,761.0,78.8,1
56819,653942276,426.0,373.0,157.0,0,0.799,761.0,78.8,1
56820,654009040,377.0,374.0,171.0,0,0.781,761.0,78.8,1
56821,654017039,363.0,371.0,179.0,0,0.729,761.0,78.8,1
56822,654025040,346.0,365.0,183.0,0,0.69,761.0,78.8,1
56823,654033040,324.0,355.0,182.0,1,0.658,761.0,78.8,1
56824,654041039,305.0,343.0,178.0,0,0.681,761.0,78.8,1
56825,654049040,286.0,329.0,171.0,0,0.702,761.0,78.8,1
56826,654057040,265.0,314.0,161.0,0,0.718,761.0,78.8,1
56827,654065039,243.0,296.0,149.0,0,0.719,761.0,78.8,1
56828,654073040,223.0,279.0,135.0,0,0.714,761.0,78.8,1
56829,654081040,203.0,260.0,120.0,0,0.695,761.0,78.8,1
56830,654089040,184.0,242.0,103.0,0,0.677,761.0,78.8,1
56831,654097040,164.0,223.0,86.0,0,0.641,761.0,78.8,1
56832,654105041,149.0,205.0,69.0,0,0.603,761.0,78.8,1
56833,654113039,135.0,188.0,51.0,0,0.57,761.0,78.8,1
56834,654121040,121.0,172.0,34.0,0,0.525,761.0,78.8,1
56835,654129041,113.0,158.0,18.0,0,0.484,761.0,78.8,1
56836,654195514,85.0,140.0,2.0,0,0.473,761.0,78.8,1
56837,654203515,84.0,126.0,-14.0,0,0.505,761.0,78.8,1
56838,654211514,88.0,117.0,-28.0,0,0.517,761.0,78.8,1
56839,654219515,87.0,110.0,-39.0,0,0.513,761.0,78.8,1
56840,654227515,88.0,105.0,-49.0,0,0.525,761.0,78.8,1
56841,654235515,89.0,101.0,-57.0,0,0.523,761.0,78.8,1
56842,654243515,88.0,98.0,-63.0,0,0.516,761.0,78.8,1
56843,654251515,90.0,96.0,-68.0,0,0.517,761.0,78.8,1
56844,654259514,88.0,94.0,-72.0,0,0.515,761.0,78.8,1
56845,654267515,88.0,92.0,-75.0,0,0.512,761.0,78.8,1
56846,654275518,89.0,92.0,-77.0,0,0.506,761.0,78.8,1
56847,654283515,87.0,91.0,-79.0,0,0.51,761.0,78.8,1
56848,654291515,86.0,89.0,-81.0,0,0.514,761.0,78.8,1
56849,654299515,85.0,88.0,-82.0,0,0.506,761.0,78.8,1
56850,654307515,86.0,88.0,-83.0,0,0.508,761.0,78.8,1
56851,654315515,85.0,87.0,-83.0,1,0.498,761.0,78.8,1
56852,654382142,87.0,87.0,-83.0,0,0.497,761.0,78.8,1
56853,654390142,88.0,87.0,-83.0,0,0.497,761.0,78.8,1
56854,654398142,86.0,87.0,-83.0,0,0.495,761.0,78.8,1
56855,654406142,88.0,87.0,-83.0,0,0.494,761.0,78.8,1
56856,654414145,85.0,87.0,-83.0,0,0.493,761.0,78.8,1
56857,654422142,85.0,86.0,-83.0,0,0.492,761.0,78.8,1
56858,654430142,85.0,86.0,-82.0,0,0.498,761.0,78.8,1
56859,654438142,84.0,85.0,-82.0,1,0.488,761.0,78.8,1
56860,654446142,90.0,87.0,-82.0,0,0.487,761.0,78.8,1
56861,654454142,88.0,87.0,-81.0,0,0.494,761.0,78.8,1
56862,654462142,86.0,87.0,-80.0,0,0.491,761.0,78.8,1
56863,654470142,87.0,87.0,-80.0,1,0.48,761.0,78.8,1
56864,654478142,89.0,87.0,-79.0,0,0.487,761.0,78.8,1
56865,654486142,91.0,88.0,-78.0,0,0.484,761.0,78.8,1
56866,654494142,94.0,90.0,-77.0,0,0.481,761.0,78.8,1
56867,654502142,94.0,91.0,-76.0,0,0.478,761.0,78.8,1
56868,654568346,117.0,97.0,-73.0,0,0.49,761.0,78.8,1
56869,654576350,118.0,102.0,-69.0,0,0.491,761.0,78.8,1
56870,654584346,122.0,107.0,-65.0,0,0.481,761.0,78.8,1
56871,654592351,122.0,111.0,-61.0,0,0.471,761.0,78.8,1
56872,654600346,122.0,113.0,-57.0,0,0.461,761.0,78.8,1
56873,654608350,124.0,116.0,-54.0,0,0.443,761.0,78.8,1
56874,654616346,124.0,118.0,-51.0,0,0.435,761.0,78.8,1
56875,654624347,125.0,120.0,-48.0,0,0.428,761.0,78.8,1
56876,654632346,127.0,121.0,-45.0,0,0.421,761.0,78.8,1
56877,654640346,127.0,123.0,-43.0,0,0.406,761.0,78.8,1
56878,654648346,131.0,125.0,-41.0,0,0.401,761.0,78.8,1
56879,654656346,131.0,126.0,-39.0,0,0.397,761.0,78.8,1
56880,654664346,133.0,128.0,-37.0,0,0.393,761.0,78.8,1
56881,654672346,137.0,130.0,-34.0,0,0.397,761.0,78.8,1
56882,654680346,144.0,133.0,-32.0,0,0.382,761.0,78.8,1
56883,654688346,153.0,138.0,-29.0,0,0.387,761.0,78.8,1
56884,654755497,333.0,185.0,-13.0,0,0.491,761.0,78.8,1
56885,654763499,356.0,227.0,10.0,0,0.566,761.0,78.8,1
56886,654771498,378.0,263.0,37.0,0,0.643,761.0,78.8,1
56887,654779498,396.0,296.0,65.0,0,0.71,761.0,78.8,1
56888,654787498,411.0,324.0,92.0,0,0.764,761.0,78.8,1
56889,654795498,419.0,347.0,118.0,0,0.808,761.0,78.8,1
56890,654803498,427.0,366.0,142.0,0,0.835,761.0,78.8,1
56891,654811498,428.0,381.0,163.0,0,0.843,761.0,78.8,1
56892,654819498,426.0,392.0,180.0,0,0.83,761.0,78.8,1
56893,654827498,424.0,400.0,195.0,0,0.824,761.0,78.8,1
56894,654835498,416.0,404.0,206.0,0,0.793,761.0,78.8,1
56895,654843498,407.0,405.0,213.0,0,0.754,761.0,78.8,1
56896,654851498,396.0,402.0,218.0,0,0.734,761.0,78.8,1
56897,654859498,380.0,397.0,219.0,0,0.693,761.0,78.8,1
56898,654867498,364.0,389.0,217.0,1,0.699,761.0,78.8,1
56899,654875499,348.0,379.0,212.0,0,0.725,761.0,78.8,1
56900,654941721,181.0,331.0,195.0,0,0.827,761.0,78.8,1
56901,654949723,165.0,291.0,171.0,0,0.844,761.0,78.8,1
56902,654957723,150.0,257.0,144.0,0,0.817,761.0,78.8,1
56903,654965723,139.0,228.0,116.0,0,0.77,761.0,78.8,1
56904,654973723,124.0,203.0,90.0,0,0.707,761.0,78.8,1
56905,654981723,112.0,181.0,64.0,0,0.649,761.0,78.8,1
56906,654989723,108.0,163.0,41.0,0,0.582,761.0,78.8,1
56907,654997723,98.0,147.0,20.0,0,0.525,761.0,78.8,1
56908,655005723,94.0,134.0,1.0,0,0.502,761.0,78.8,1
56909,655013723,92.0,124.0,-15.0,0,0.51,761.0,78.8,1
56910,655021723,88.0,115.0,-29.0,0,0.523,761.0,78.8,1
56911,655029723,88.0,109.0,-41.0,0,0.53,761.0,78.8,1
56912,655037723,87.0,103.0,-51.0,0,0.533,761.0,78.8,1
56913,655045723,87.0,99.0,-59.0,0,0.531,761.0,78.8,1
56914,655053723,90.0,97.0,-65.0,0,0.524,761.0,78.8,1
56915,655061722,90.0,95.0,-69.0,0,0.513,761.0,78.8,1
56916,655128345,100.0,97.0,-72.0,0,0.51,761.0,78.8,1
56917,655136347,100.0,97.0,-74.0,0,0.504,761.0,78.8,1
56918,655144346,99.0,98.0,-75.0,0,0.497,761.0,78.8,1
56919,655152346,99.0,98.0,-75.0,1,0.487,800.0,75.0,1
56920,655160346,98.0,98.0,-76.0,0,0.498,800.0,75.0,1
56921,655168346,97.0,98.0,-76.0,1,0.488,800.0,75.0,1
56922,655176346,96.0,97.0,-76.0,0,0.487,800.0,75.0,1
56923,655184346,95.0,97.0,-76.0,0,0.486,800.0,75.0,1
56924,655192346,95.0,96.0,-76.0,0,0.485,800.0,75.0,1
56925,655200346,91.0,95.0,-76.0,0,0.484,800.0,75.0,1
56926,655208346,92.0,94.0,-76.0,0,0.482,800.0,75.0,1
56927,655216346,89.0,93.0,-77.0,0,0.493,800.0,75.0,1
56928,655224346,90.0,92.0,-77.0,1,0.483,800.0,75.0,1
56929,655232346,89.0,91.0,-77.0,0,0.482,800.0,75.0,1
56930,655240346,84.0,90.0,-78.0,0,0.493,800.0,75.0,1
56931,655248349,91.0,90.0,-78.0,1,0.482,800.0,75.0,1
56932,655314795,96.0,91.0,-78.0,0,0.482,800.0,75.0,1
56933,655322796,96.0,93.0,-77.0,0,0.488,800.0,75.0,1
56934,655330796,99.0,94.0,-76.0,0,0.485,800.0,75.0,1
56935,655338796,98.0,95.0,-75.0,0,0.482,800.0,75.0,1
56936,655346796,101.0,96.0,-73.0,0,0.487,800.0,75.0,1
56937,655354796,102.0,98.0,-72.0,0,0.473,800.0,75.0,1
56938,655362796,104.0,99.0,-70.0,0,0.478,800.0,75.0,1
56939,655370796,109.0,102.0,-68.0,0,0.472,800.0,75.0,1
56940,655378796,110.0,104.0,-66.0,0,0.467,800.0,75.0,1
56941,655386796,112.0,106.0,-64.0,0,0.461,800.0,75.0,1
56942,655394796,115.0,108.0,-61.0,0,0.464,800.0,75.0,1
56943,655402796,118.0,110.0,-59.0,0,0.448,800.0,75.0,1
56944,655410795,120.0,113.0,-56.0,0,0.452,800.0,75.0,1
56945,655418796,119.0,114.0,-54.0,0,0.436,800.0,75.0,1
56946,655426796,123.0,116.0,-52.0,0,0.431,800.0,75.0,1
56947,655434796,121.0,117.0,-50.0,0,0.426,800.0,75.0,1
56948,655501632,143.0,124.0,-46.0,0,0.439,800.0,75.0,1
56949,655509633,153.0,131.0,-42.0,0,0.43,800.0,75.0,1
56950,655517633,163.0,139.0,-36.0,0,0.439,800.0,75.0,1
56951,655525633,176.0,148.0,-30.0,0,0.426,800.0,75.0,1
56952,655533633,196.0,159.0,-22.0,0,0.431,800.0,75.0,1
56953,655541633,217.0,173.0,-12.0,0,0.433,800.0,75.0,1
56954,655549633,244.0,190.0,0.0,0,0.456,800.0,75.0,1
56955,655557633,268.0,209.0,13.0,0,0.493,800.0,75.0,1
56956,655565633,293.0,230.0,29.0,0,0.556,800.0,75.0,1
56957,655573633,319.0,251.0,46.0,0,0.603,800.0,75.0,1
56958,655581631,341.0,273.0,64.0,0,0.651,800.0,75.0,1
56959,655589634,362.0,295.0,83.0,0,0.7,800.0,75.0,1
56960,655597634,378.0,315.0,102.0,0,0.738,800.0,75.0,1
56961,655605633,393.0,334.0,120.0,0,0.763,800.0,75.0,1
56962,655613633,404.0,351.0,138.0,0,0.791,800.0,75.0,1
56963,655621633,410.0,365.0,155.0,0,0.805,800.0,75.0,1
56964,655687697,344.0,360.0,165.0,0,0.749,800.0,75.0,1
56965,655695700,325.0,352.0,169.0,0,0.687,800.0,75.0,1
56966,655703700,308.0,341.0,169.0,1,0.644,800.0,75.0,1
56967,655711701,288.0,328.0,165.0,0,0.679,800.0,75.0,1
56968,655719699,268.0,314.0,157.0,0,0.71,800.0,75.0,1
56969,655727700,249.0,298.0,147.0,0,0.716,800.0,75.0,1
56970,655735700,227.0,281.0,135.0,0,0.716,800.0,75.0,1
56971,655743700,211.0,264.0,121.0,0,0.709,800.0,75.0,1
56972,655751700,192.0,246.0,106.0,0,0.687,800.0,75.0,1
56973,655759700,176.0,229.0,91.0,0,0.654,800.0,75.0,1
56974,655767700,161.0,213.0,75.0,0,0.625,800.0,75.0,1
56975,655775700,146.0,197.0,59.0,0,0.587,800.0,75.0,1
56976,655783700,135.0,182.0,43.0,0,0.55,800.0,75.0,1
56977,655791700,125.0,168.0,28.0,0,0.507,800.0,75.0,1
56978,655799700,116.0,155.0,14.0,0,0.468,800.0,75.0,1
56979,655807698,111.0,145.0,0.0,0,0.468,800.0,75.0,1
56980,655874181,106.0,135.0,-12.0,0,0.474,800.0,75.0,1
56981,655882183,106.0,128.0,-22.0,0,0.476,800.0,75.0,1
56982,655890183,108.0,123.0,-31.0,0,0.486,800.0,75.0,1
56983,655898183,107.0,119.0,-39.0,0,0.494,800.0,75.0,1
56984,655906183,108.0,117.0,-44.0,0,0.473,800.0,75.0,1
56985,655914184,110.0,115.0,-49.0,0,0.485,800.0,75.0,1
56986,655922183,110.0,114.0,-52.0,0,0.471,800.0,75.0,1
56987,655930183,110.0,113.0,-55.0,0,0.478,800.0,75.0,1
56988,655938183,108.0,112.0,-57.0,0,0.472,800.0,75.0,1
56989,655946183,108.0,111.0,-59.0,0,0.476,800.0,75.0,1
56990,655954183,105.0,109.0,-60.0,0,0.468,800.0,75.0,1
56991,655962183,103.0,108.0,-62.0,0,0.482,800.0,75.0,1
56992,655970183,103.0,107.0,-63.0,0,0.474,800.0,75.0,1
56993,655978183,100.0,105.0,-64.0,0,0.476,800.0,75.0,1
56994,655986183,101.0,104.0,-65.0,0,0.477,800.0,75.0,1
56995,655994183,102.0,104.0,-66.0,0,0.478,800.0,75.0,1
56996,656060704,97.0,102.0,-67.0,0,0.48,800.0,75.0,1
56997,656068706,100.0,101.0,-67.0,1,0.469,836.0,71.8,1
56998,656076706,99.0,101.0,-68.0,0,0.48,836.0,71.8,1
56999,656084706,100.0,101.0,-68.0,1,0.469,836.0,71.8,1
57000,656092706,100.0,101.0,-68.0,0,0.468,836.0,71.8,1
57001,656100706,100.0,100.0,-68.0,0,0.467,836.0,71.8,1
57002,656108706,103.0,101.0,-68.0,0,0.466,836.0,71.8,1
57003,656116706,104.0,102.0,-67.0,0,0.473,836.0,71.8,1
57004,656124706,106.0,103.0,-66.0,0,0.469,836.0,71.8,1
57005,656132706,108.0,104.0,-65.0,0,0.466,836.0,71.8,1
57006,656140706,107.0,105.0,-64.0,0,0.463,836.0,71.8,1
57007,656148706,109.0,106.0,-63.0,0,0.459,836.0,71.8,1
57008,656156706,110.0,107.0,-62.0,0,0.456,836.0,71.8,1
57009,656164706,112.0,108.0,-60.0,0,0.46,836.0,71.8,1
57010,656172706,112.0,109.0,-59.0,0,0.447,836.0,71.8,1
57011,656180706,113.0,110.0,-58.0,0,0.444,836.0,71.8,1
57012,656247108,127.0,114.0,-55.0,0,0.457,836.0,71.8,1
57013,656255113,126.0,117.0,-53.0,0,0.441,836.0,71.8,1
57014,656263113,127.0,119.0,-50.0,0,0.444,836.0,71.8,1
57015,656271113,134.0,123.0,-47.0,0,0.436,836.0,71.8,1
57016,656279110,139.0,127.0,-44.0,0,0.429,836.0,71.8,1
57017,656287108,144.0,131.0,-41.0,0,0.422,836.0,71.8,1
57018,656295110,152.0,136.0,-37.0,0,0.424,836.0,71.8,1
57019,656303113,164.0,143.0,-32.0,0,0.424,836.0,71.8,1
57020,656311113,181.0,152.0,-26.0,0,0.422,836.0,71.8,1
57021,656319113,198.0,163.0,-18.0,0,0.427,836.0,71.8,1
57022,656327107,220.0,177.0,-9.0,0,0.42,836.0,71.8,1
57023,656335113,244.0,193.0,3.0,0,0.459,836.0,71.8,1
57024,656343111,272.0,212.0,16.0,0,0.496,836.0,71.8,1
57025,656351108,295.0,232.0,31.0,0,0.548,836.0,71.8,1
57026,656359113,318.0,253.0,48.0,0,0.604,836.0,71.8,1
57027,656367113,340.0,274.0,65.0,0,0.643,836.0,71.8,1
57028,656433798,404.0,306.0,87.0,0,0.726,836.0,71.8,1
57029,656441802,396.0,328.0,108.0,0,0.762,836.0,71.8,1
57030,656449800,383.0,341.0,127.0,0,0.781,836.0,71.8,1
57031,656457801,368.0,348.0,141.0,0,0.76,836.0,71.8,1
57032,656465803,354.0,349.0,152.0,0,0.744,836.0,71.8,1
57033,656473801,338.0,346.0,159.0,0,0.708,836.0,71.8,1
57034,656481803,321.0,340.0,161.0,0,0.655,836.0,71.8,1
57035,656489801,306.0,332.0,160.0,1,0.642,836.0,71.8,1
57036,656497801,287.0,321.0,156.0,0,0.666,836.0,71.8,1
57037,656505801,268.0,308.0,150.0,0,0.678,836.0,71.8,1
57038,656513803,248.0,294.0,140.0,0,0.704,836.0,71.8,1
57039,656521802,223.0,276.0,129.0,0,0.695,836.0,71.8,1
57040,656529801,208.0,260.0,116.0,0,0.689,836.0,71.8,1
57041,656537802,190.0,243.0,101.0,0,0.676,836.0,71.8,1
