seq,t_us,raw,avg,filtered,peak,detector_score,expected_rr_ms,hr_bpm,flags
57616,461470043,421.0,387.0,181.0,0,0.833,795.2,77.3,17
57617,461478045,425.0,396.0,193.0,0,0.822,795.2,77.3,17
57618,461486043,418.0,402.0,203.0,0,0.805,795.2,77.3,17
57619,461494046,417.0,405.0,210.0,0,0.768,795.2,77.3,17
57620,461502043,410.0,407.0,216.0,0,0.756,795.2,77.3,17
57621,461510044,401.0,405.0,219.0,0,0.713,795.2,77.3,17
57622,461518044,391.0,402.0,219.0,1,0.671,795.2,77.3,17
57623,461526047,379.0,396.0,218.0,0,0.682,795.2,77.3,17
57624,461534043,365.0,389.0,214.0,0,0.719,795.2,77.3,17
57625,461542045,352.0,380.0,209.0,0,0.727,795.2,77.3,17
57626,461550044,338.0,370.0,202.0,0,0.748,795.2,77.3,17
57627,461558044,325.0,359.0,193.0,0,0.765,795.2,77.3,17
57628,461566044,301.0,345.0,183.0,0,0.766,795.2,77.3,17
57629,461574043,290.0,332.0,171.0,0,0.774,795.2,77.3,17
57630,461582043,271.0,317.0,159.0,0,0.757,795.2,77.3,17
57631,461590044,258.0,303.0,145.0,0,0.756,795.2,77.3,17
57632,461598043,246.0,289.0,132.0,0,0.724,795.2,77.3,17
57633,461606044,234.0,276.0,118.0,0,0.71,795.2,77.3,17
57634,461614043,215.0,261.0,104.0,0,0.684,795.2,77.3,17
57635,461622043,198.0,246.0,89.0,0,0.664,795.2,77.3,17
57636,461630044,188.0,232.0,75.0,0,0.627,795.2,77.3,17
57637,461638045,172.0,217.0,60.0,0,0.606,795.2,77.3,17
57638,461646046,171.0,206.0,47.0,0,0.561,795.2,77.3,17
57639,461654044,160.0,195.0,34.0,0,0.537,795.2,77.3,17
57640,461662043,152.0,184.0,22.0,0,0.503,795.2,77.3,17
57641,461670043,153.0,177.0,11.0,0,0.472,795.2,77.3,17
57642,461678043,146.0,169.0,1.0,0,0.46,795.2,77.3,17
57643,461686044,140.0,162.0,-8.0,0,0.463,795.2,77.3,17
57644,461694046,140.0,157.0,-16.0,0,0.463,795.2,77.3,17
57645,461702044,137.0,152.0,-23.0,0,0.462,795.2,77.3,17
57646,461710044,127.0,146.0,-29.0,0,0.459,795.2,77.3,17
57647,461718043,125.0,141.0,-35.0,0,0.471,795.2,77.3,17
57648,461726047,123.0,137.0,-41.0,0,0.482,795.2,77.3,17
57649,461734044,119.0,132.0,-46.0,0,0.478,795.2,77.3,17
57650,461742043,116.0,128.0,-50.0,0,0.471,795.2,77.3,17
57651,461750043,112.0,124.0,-55.0,0,0.495,795.2,77.3,17
57652,461758043,111.0,121.0,-59.0,0,0.489,795.2,77.3,17
57653,461766044,105.0,117.0,-62.0,0,0.48,795.2,77.3,17
57654,461774044,102.0,114.0,-66.0,0,0.502,795.2,77.3,17
57655,461782047,98.0,110.0,-69.0,0,0.493,795.2,77.3,17
57656,461790043,93.0,106.0,-73.0,0,0.516,795.2,77.3,17
57657,461798046,91.0,102.0,-76.0,0,0.507,795.2,77.3,17
57658,461806047,82.0,97.0,-80.0,0,0.53,795.2,77.3,17
57659,461814044,84.0,94.0,-83.0,0,0.52,795.2,77.3,17
57660,461822047,80.0,91.0,-86.0,0,0.526,795.2,77.3,17
57661,461830044,78.0,88.0,-89.0,0,0.531,795.2,77.3,17
57662,461838043,72.0,84.0,-92.0,0,0.537,795.2,77.3,17
57663,461846045,72.0,81.0,-95.0,0,0.542,795.2,77.3,17
57664,461854043,70.0,78.0,-98.0,0,0.547,795.2,77.3,17
57665,461862044,71.0,77.0,-100.0,0,0.536,795.2,77.3,17
57666,461870043,71.0,75.0,-101.0,0,0.523,795.2,77.3,17
57667,461878045,68.0,73.0,-103.0,0,0.541,795.2,77.3,17
57668,461886043,70.0,73.0,-104.0,0,0.528,795.2,77.3,17
57669,461894044,69.0,72.0,-105.0,0,0.529,795.2,77.3,17
57670,461902043,70.0,71.0,-105.0,1,0.515,795.2,77.3,17
57671,461910045,76.0,72.0,-105.0,0,0.514,795.2,77.3,17
57672,461918044,72.0,72.0,-105.0,0,0.513,795.2,77.3,17
57673,461926044,72.0,72.0,-105.0,0,0.513,795.2,77.3,17
57674,461934045,75.0,73.0,-104.0,0,0.524,795.2,77.3,17
57675,461942043,80.0,75.0,-103.0,0,0.522,795.2,77.3,17
57676,461950044,78.0,75.0,-102.0,0,0.519,795.2,77.3,17
57677,461958043,79.0,76.0,-100.0,0,0.529,795.2,77.3,17
57678,461966044,81.0,77.0,-99.0,0,0.512,795.2,77.3,17
57679,461974044,82.0,79.0,-97.0,0,0.522,795.2,77.3,17
57680,461982044,81.0,79.0,-96.0,0,0.506,795.2,77.3,17
57681,461990044,84.0,80.0,-94.0,0,0.516,795.2,77.3,17
57682,461998044,88.0,82.0,-92.0,0,0.511,795.2,77.3,17
57683,462006044,92.0,85.0,-90.0,0,0.507,795.2,77.3,17
57684,462014045,92.0,86.0,-88.0,0,0.503,795.2,77.3,17
57685,462022044,93.0,88.0,-86.0,0,0.499,795.2,77.3,17
57686,462030047,95.0,90.0,-84.0,0,0.495,795.2,77.3,17
57687,462038047,100.0,92.0,-81.0,0,0.503,795.2,77.3,17
57688,462046045,101.0,94.0,-79.0,0,0.485,795.2,77.3,17
57689,462054044,103.0,96.0,-76.0,0,0.493,795.2,77.3,17
57690,462062044,103.0,98.0,-74.0,0,0.474,795.2,77.3,17
57691,462070044,108.0,100.0,-72.0,0,0.47,795.2,77.3,17
57692,462078043,111.0,103.0,-69.0,0,0.479,795.2,77.3,17
57693,462086043,114.0,106.0,-66.0,0,0.473,795.2,77.3,17
57694,462094043,117.0,108.0,-63.0,0,0.467,795.2,77.3,17
57695,462102043,117.0,110.0,-60.0,0,0.461,795.2,77.3,17
57696,462110043,118.0,112.0,-58.0,0,0.442,795.2,77.3,17
57697,462118044,120.0,114.0,-55.0,0,0.451,795.2,77.3,17
57698,462126043,119.0,115.0,-53.0,0,0.432,795.2,77.3,17
57699,462134043,120.0,116.0,-51.0,0,0.428,795.2,77.3,17
57700,462142043,123.0,118.0,-49.0,0,0.425,795.2,77.3,17
57701,462150045,124.0,119.0,-47.0,0,0.421,795.2,77.3,17
57702,462158043,124.0,121.0,-46.0,0,0.405,795.2,77.3,17
57703,462166044,123.0,121.0,-44.0,0,0.415,795.2,77.3,17
57704,462174043,126.0,122.0,-43.0,0,0.399,795.2,77.3,17
57705,462182043,127.0,123.0,-41.0,0,0.409,795.2,77.3,17
57706,462190043,127.0,124.0,-40.0,0,0.393,795.2,77.3,17
57707,462198043,127.0,125.0,-39.0,0,0.391,795.2,77.3,17
57708,462206043,132.0,127.0,-37.0,0,0.402,795.2,77.3,17
57709,462214044,132.0,128.0,-36.0,0,0.386,795.2,77.3,17
57710,462222043,133.0,129.0,-34.0,0,0.396,795.2,77.3,17
57711,462230043,144.0,133.0,-32.0,0,0.392,795.2,77.3,17
57712,462238043,153.0,138.0,-29.0,0,0.401,795.2,77.3,17
57713,462246043,159.0,143.0,-26.0,0,0.395,795.2,77.3,17
57714,462254043,176.0,151.0,-21.0,0,0.416,795.2,77.3,17
57715,462262043,194.0,161.0,-14.0,0,0.433,795.2,77.3,17
57716,462270043,212.0,174.0,-6.0,0,0.433,795.2,77.3,17
57717,462278045,241.0,190.0,4.0,0,0.47,795.2,77.3,17
57718,462286045,265.0,208.0,17.0,0,0.529,795.2,77.3,17
57719,462294044,290.0,228.0,31.0,0,0.567,795.2,77.3,17
57720,462302043,314.0,249.0,47.0,0,0.617,795.2,77.3,17
57721,462310045,333.0,269.0,64.0,0,0.659,795.2,77.3,17
57722,462318043,357.0,291.0,83.0,0,0.71,795.2,77.3,17
57723,462326043,376.0,311.0,101.0,0,0.739,795.2,77.3,17
57724,462334045,396.0,332.0,120.0,0,0.78,795.2,77.3,17
57725,462342046,402.0,349.0,138.0,0,0.803,795.2,77.3,17
57726,462350043,412.0,364.0,155.0,0,0.82,795.2,77.3,17
57727,462358047,419.0,377.0,170.0,0,0.823,795.2,77.3,17
57728,462366043,420.0,388.0,184.0,0,0.829,795.2,77.3,17
57729,462374043,420.0,396.0,195.0,0,0.807,795.2,77.3,17
57730,462382043,412.0,400.0,204.0,0,0.789,795.2,77.3,17
57731,462390047,409.0,402.0,211.0,0,0.766,795.2,77.3,17
57732,462398043,405.0,403.0,215.0,0,0.724,795.2,77.3,17
57733,462406043,390.0,400.0,217.0,0,0.696,795.2,77.3,17
57734,462414043,380.0,395.0,217.0,1,0.668,795.2,77.3,17
57735,462422043,372.0,389.0,214.0,0,0.708,795.2,77.3,17
57736,462430043,361.0,382.0,210.0,0,0.719,795.2,77.3,17
57737,462438043,348.0,374.0,205.0,0,0.729,795.2,77.3,17
57738,462446046,329.0,363.0,197.0,0,0.766,795.2,77.3,17
57739,462454043,315.0,351.0,188.0,0,0.771,795.2,77.3,17
57740,462462043,301.0,339.0,178.0,0,0.773,795.2,77.3,17
57741,462470044,288.0,327.0,167.0,0,0.772,795.2,77.3,17
57742,462478043,274.0,314.0,155.0,0,0.767,795.2,77.3,17
57743,462486043,251.0,299.0,142.0,0,0.759,795.2,77.3,17
57744,462494043,240.0,284.0,129.0,0,0.738,795.2,77.3,17
57745,462502043,222.0,269.0,115.0,0,0.724,795.2,77.3,17
57746,462510043,210.0,255.0,100.0,0,0.706,795.2,77.3,17
57747,462518045,198.0,241.0,86.0,0,0.669,795.2,77.3,17
57748,462526043,186.0,228.0,72.0,0,0.641,795.2,77.3,17
57749,462534045,181.0,216.0,58.0,0,0.613,795.2,77.3,17
57750,462542043,174.0,206.0,46.0,0,0.567,795.2,77.3,17
57751,462550045,163.0,196.0,34.0,0,0.544,795.2,77.3,17
57752,462558043,162.0,188.0,23.0,0,0.511,795.2,77.3,17
57753,462566046,158.0,180.0,13.0,0,0.479,795.2,77.3,17
57754,462574043,152.0,173.0,5.0,0,0.438,795.2,77.3,17
57755,462582047,151.0,168.0,-3.0,0,0.431,795.2,77.3,17
57756,462590043,148.0,163.0,-10.0,0,0.429,795.2,77.3,17
57757,462598045,149.0,160.0,-16.0,0,0.425,795.2,77.3,17
57758,462606043,146.0,156.0,-21.0,0,0.42,795.2,77.3,17
57759,462614043,144.0,153.0,-26.0,0,0.429,795.2,77.3,17
57760,462622043,140.0,150.0,-30.0,0,0.422,795.2,77.3,17
57761,462630046,136.0,147.0,-34.0,0,0.43,795.2,77.3,17
57762,462638044,140.0,145.0,-37.0,0,0.421,795.2,77.3,17
57763,462646043,137.0,143.0,-39.0,0,0.41,795.2,77.3,17
57764,462654048,131.0,140.0,-42.0,0,0.431,795.2,77.3,17
57765,462662043,124.0,136.0,-45.0,0,0.437,795.2,77.3,17
57766,462670044,123.0,133.0,-48.0,0,0.443,795.2,77.3,17
57767,462678044,116.0,129.0,-51.0,0,0.449,795.2,77.3,17
57768,462686043,111.0,125.0,-54.0,0,0.455,795.2,77.3,17
57769,462694045,109.0,121.0,-58.0,0,0.478,795.2,77.3,17
57770,462702043,104.0,117.0,-61.0,0,0.469,795.2,77.3,17
57771,462710044,97.0,112.0,-65.0,0,0.492,795.2,77.3,17
57772,462718044,98.0,109.0,-68.0,0,0.484,795.2,77.3,17
57773,462726046,92.0,105.0,-72.0,0,0.506,795.2,77.3,17
57774,462734045,91.0,101.0,-75.0,0,0.498,795.2,77.3,17
57775,462742045,84.0,97.0,-78.0,0,0.504,795.2,77.3,17
57776,462750045,80.0,93.0,-82.0,0,0.527,795.2,77.3,17
57777,462758043,84.0,91.0,-84.0,0,0.501,795.2,77.3,17
57778,462766043,78.0,88.0,-87.0,0,0.522,795.2,77.3,17
57779,462774046,76.0,85.0,-90.0,0,0.528,795.2,77.3,17
57780,462782044,74.0,82.0,-92.0,0,0.517,795.2,77.3,17
57781,462790045,72.0,80.0,-95.0,0,0.537,795.2,77.3,17
57782,462798044,72.0,78.0,-96.0,0,0.511,795.2,77.3,17
57783,462806045,74.0,77.0,-98.0,0,0.529,795.2,77.3,17
57784,462814044,69.0,75.0,-99.0,0,0.517,795.2,77.3,17
57785,462822046,70.0,74.0,-100.0,0,0.518,795.2,77.3,17
57786,462830043,68.0,72.0,-101.0,0,0.52,795.2,77.3,17
57787,462838045,70.0,72.0,-102.0,0,0.522,795.2,77.3,17
57788,462846043,74.0,72.0,-102.0,1,0.509,795.2,77.3,17
57789,462854046,73.0,73.0,-102.0,0,0.509,795.2,77.3,17
57790,462862043,78.0,74.0,-102.0,0,0.508,795.2,77.3,17
57791,462870043,76.0,74.0,-101.0,0,0.52,795.2,77.3,17
57792,462878044,81.0,76.0,-100.0,0,0.518,795.2,77.3,17
57793,462886045,78.0,76.0,-98.0,0,0.528,795.2,77.3,17
57794,462894043,88.0,79.0,-96.0,0,0.524,795.2,77.3,17
57795,462902046,85.0,81.0,-95.0,0,0.508,795.2,77.3,17
57796,462910043,89.0,83.0,-93.0,0,0.518,795.2,77.3,17
57797,462918043,89.0,84.0,-90.0,0,0.527,795.2,77.3,17
57798,462926045,88.0,85.0,-89.0,0,0.496,795.2,77.3,17
57799,462934043,97.0,88.0,-86.0,0,0.519,795.2,77.3,17
57800,462942043,95.0,90.0,-84.0,0,0.5,795.2,77.3,17
57801,462950046,100.0,92.0,-81.0,0,0.509,795.2,77.3,17
57802,462958043,103.0,95.0,-79.0,0,0.49,795.2,77.3,17
57803,462966043,106.0,98.0,-76.0,0,0.499,795.2,77.3,17
57804,462974043,108.0,100.0,-73.0,0,0.493,795.2,77.3,17
57805,462982045,108.0,102.0,-70.0,0,0.487,795.2,77.3,17
57806,462990043,104.0,102.0,-68.0,0,0.468,795.2,77.3,17
57807,462998043,108.0,104.0,-66.0,0,0.464,795.2,77.3,17
57808,463006043,114.0,106.0,-64.0,0,0.46,795.2,77.3,17
57809,463014046,115.0,108.0,-61.0,0,0.468,795.2,77.3,17
57810,463022044,116.0,110.0,-59.0,0,0.45,795.2,77.3,17
57811,463030046,117.0,112.0,-57.0,0,0.446,795.2,77.3,17
57812,463038043,116.0,113.0,-55.0,0,0.441,795.2,77.3,17
57813,463046047,120.0,115.0,-53.0,0,0.437,795.2,77.3,17
57814,463054043,117.0,115.0,-51.0,0,0.433,795.2,77.3,17
57815,463062043,119.0,116.0,-50.0,0,0.417,795.2,77.3,17
57816,463070043,124.0,118.0,-48.0,0,0.427,795.2,77.3,17
57817,463078043,123.0,119.0,-46.0,0,0.423,795.2,77.3,17
57818,463086043,131.0,122.0,-44.0,0,0.419,795.2,77.3,17
57819,463094043,136.0,125.0,-42.0,0,0.415,795.2,77.3,17
57820,463102043,144.0,130.0,-39.0,0,0.424,795.2,77.3,17
57821,463110045,150.0,135.0,-35.0,0,0.431,795.2,77.3,17
57822,463118043,166.0,142.0,-30.0,0,0.436,795.2,77.3,17
57823,463126043,183.0,152.0,-24.0,0,0.44,795.2,77.3,17
57824,463134043,209.0,166.0,-15.0,0,0.468,795.2,77.3,17
57825,463142044,231.0,182.0,-5.0,0,0.464,795.2,77.3,17
57826,463150043,255.0,200.0,8.0,0,0.515,795.2,77.3,17
57827,463158045,281.0,219.0,22.0,0,0.552,795.2,77.3,17
57828,463166043,305.0,240.0,38.0,0,0.602,795.2,77.3,17
57829,463174045,331.0,262.0,56.0,0,0.653,795.2,77.3,17
57830,463182043,352.0,284.0,74.0,0,0.69,795.2,77.3,17
57831,463190044,369.0,305.0,93.0,0,0.735,795.2,77.3,17
57832,463198043,383.0,324.0,112.0,0,0.771,795.2,77.3,17
57833,463206044,400.0,342.0,130.0,0,0.796,795.2,77.3,17
57834,463214044,412.0,359.0,148.0,0,0.824,795.2,77.3,17
57835,463222043,419.0,374.0,164.0,0,0.831,795.2,77.3,17
57836,463230044,422.0,385.0,178.0,0,0.83,795.2,77.3,17
57837,463238045,425.0,395.0,191.0,0,0.833,795.2,77.3,17
57838,463246044,420.0,401.0,202.0,0,0.82,795.2,77.3,17
57839,463254045,415.0,404.0,210.0,0,0.786,795.2,77.3,17
57840,463262043,404.0,404.0,215.0,0,0.746,795.2,77.3,17
57841,463270043,398.0,403.0,218.0,0,0.718,795.2,77.3,17
57842,463278043,383.0,398.0,218.0,1,0.675,795.2,77.3,17
57843,463286043,373.0,392.0,216.0,0,0.701,795.2,77.3,17
57844,463294043,361.0,384.0,212.0,0,0.727,795.2,77.3,17
57845,463302044,349.0,376.0,206.0,0,0.752,795.2,77.3,17
57846,463310043,334.0,366.0,199.0,0,0.76,795.2,77.3,17
57847,463318044,314.0,353.0,190.0,0,0.78,795.2,77.3,17
57848,463326043,299.0,340.0,180.0,0,0.782,795.2,77.3,17
57849,463334043,285.0,327.0,168.0,0,0.792,795.2,77.3,17
57850,463342043,264.0,311.0,155.0,0,0.786,795.2,77.3,17
57851,463350043,245.0,295.0,141.0,0,0.775,795.2,77.3,17
57852,463358043,236.0,281.0,127.0,0,0.752,795.2,77.3,17
57853,463366043,220.0,266.0,112.0,0,0.734,795.2,77.3,17
57854,463374045,205.0,251.0,98.0,0,0.698,795.2,77.3,17
57855,463382042,194.0,237.0,83.0,0,0.677,795.2,77.3,17
57856,463390043,178.0,223.0,68.0,0,0.646,795.2,77.3,17
57857,463398046,176.0,212.0,55.0,0,0.6,795.2,77.3,17
57858,463406043,167.0,201.0,42.0,0,0.573,795.2,77.3,17
57859,463414043,160.0,191.0,30.0,0,0.538,795.2,77.3,17
57860,463422043,155.0,182.0,19.0,0,0.505,795.2,77.3,17
57861,463430046,154.0,175.0,9.0,0,0.474,795.2,77.3,17
57862,463438044,149.0,169.0,0.0,0,0.444,795.2,77.3,17
57863,463446047,141.0,162.0,-8.0,0,0.44,795.2,77.3,17
57864,463454043,141.0,157.0,-16.0,0,0.454,795.2,77.3,17
57865,463462044,145.0,154.0,-21.0,0,0.419,795.2,77.3,17
57866,463470043,139.0,150.0,-27.0,0,0.446,795.2,77.3,17
57867,463478044,137.0,147.0,-31.0,0,0.424,795.2,77.3,17
57868,463486043,132.0,144.0,-36.0,0,0.449,795.2,77.3,17
57869,463494046,132.0,141.0,-39.0,0,0.425,795.2,77.3,17
57870,463502043,127.0,137.0,-43.0,0,0.448,795.2,77.3,17
57871,463510044,124.0,134.0,-46.0,0,0.439,795.2,77.3,17
57872,463518045,123.0,131.0,-49.0,0,0.446,795.2,77.3,17
57873,463526045,116.0,128.0,-52.0,0,0.452,795.2,77.3,17
57874,463534043,113.0,124.0,-55.0,0,0.458,795.2,77.3,17
57875,463542044,111.0,121.0,-58.0,0,0.464,795.2,77.3,17
57876,463550044,101.0,116.0,-62.0,0,0.488,795.2,77.3,17
57877,463558045,103.0,113.0,-65.0,0,0.479,795.2,77.3,17
57878,463566044,101.0,110.0,-68.0,0,0.486,795.2,77.3,17
57879,463574044,94.0,106.0,-71.0,0,0.492,795.2,77.3,17
57880,463582045,90.0,102.0,-74.0,0,0.498,795.2,77.3,17
57881,463590044,89.0,99.0,-77.0,0,0.505,795.2,77.3,17
57882,463598043,84.0,95.0,-80.0,0,0.511,795.2,77.3,17
57883,463606043,81.0,92.0,-83.0,0,0.517,795.2,77.3,17
57884,463614046,83.0,90.0,-86.0,0,0.523,795.2,77.3,17
57885,463622043,77.0,87.0,-88.0,0,0.513,795.2,77.3,17
57886,463630043,73.0,83.0,-91.0,0,0.534,795.2,77.3,17
57887,463638046,73.0,81.0,-93.0,0,0.523,795.2,77.3,17
57888,463646043,68.0,78.0,-96.0,0,0.544,795.2,77.3,17
57889,463654046,68.0,75.0,-98.0,0,0.533,795.2,77.3,17
57890,463662043,72.0,75.0,-100.0,0,0.537,795.2,77.3,17
57891,463670045,72.0,74.0,-101.0,0,0.525,795.2,77.3,17
57892,463678043,75.0,74.0,-101.0,1,0.512,795.2,77.3,17
57893,463686046,74.0,74.0,-101.0,0,0.512,795.2,77.3,17
57894,463694043,76.0,75.0,-101.0,0,0.512,795.2,77.3,17
57895,463702045,74.0,74.0,-101.0,0,0.512,795.2,77.3,17
57896,463710043,75.0,75.0,-100.0,0,0.524,795.2,77.3,17
57897,463718044,79.0,76.0,-100.0,1,0.51,795.2,77.3,17
57898,463726044,77.0,76.0,-99.0,0,0.522,795.2,77.3,17
57899,463734047,78.0,76.0,-98.0,0,0.52,795.2,77.3,17
57900,463742045,80.0,77.0,-97.0,0,0.518,795.2,77.3,17
57901,463750046,85.0,79.0,-95.0,0,0.528,795.2,77.3,17
57902,463758044,85.0,81.0,-94.0,0,0.512,795.2,77.3,17
57903,463766046,86.0,82.0,-92.0,0,0.522,795.2,77.3,17
57904,463774044,88.0,83.0,-90.0,0,0.518,795.2,77.3,17
57905,463782047,91.0,85.0,-88.0,0,0.514,795.2,77.3,17
57906,463790046,96.0,88.0,-86.0,0,0.51,795.2,77.3,17
57907,463798046,97.0,90.0,-83.0,0,0.518,795.2,77.3,17
57908,463806047,101.0,93.0,-81.0,0,0.5,795.2,77.3,17
57909,463814046,101.0,95.0,-78.0,0,0.508,795.2,77.3,17
57910,463822043,106.0,97.0,-75.0,0,0.502,795.2,77.3,17
57911,463830043,110.0,100.0,-73.0,0,0.483,795.2,77.3,17
57912,463838043,112.0,103.0,-69.0,0,0.504,795.2,77.3,17
57913,463846047,116.0,106.0,-66.0,0,0.483,795.2,77.3,17
57914,463854043,115.0,108.0,-63.0,0,0.477,795.2,77.3,17
57915,463862046,116.0,110.0,-61.0,0,0.458,795.2,77.3,17
57916,463870044,119.0,112.0,-58.0,0,0.467,795.2,77.3,17
57917,463878045,120.0,114.0,-55.0,0,0.46,795.2,77.3,17
57918,463886043,116.0,115.0,-53.0,0,0.442,795.2,77.3,17
57919,463894043,123.0,117.0,-51.0,0,0.438,795.2,77.3,17
57920,463902043,119.0,117.0,-50.0,0,0.421,795.2,77.3,17
57921,463910043,123.0,119.0,-48.0,0,0.431,795.2,77.3,17
57922,463918043,125.0,120.0,-46.0,0,0.427,795.2,77.3,17
57923,463926047,123.0,121.0,-45.0,0,0.411,795.2,77.3,17
57924,463934045,127.0,122.0,-43.0,0,0.421,795.2,77.3,17
57925,463942043,127.0,123.0,-41.0,0,0.417,795.2,77.3,17
57926,463950044,125.0,124.0,-40.0,0,0.401,795.2,77.3,17
57927,463958044,136.0,127.0,-38.0,0,0.411,795.2,77.3,17
57928,463966043,140.0,130.0,-36.0,0,0.406,795.2,77.3,17
57929,463974043,156.0,136.0,-33.0,0,0.415,795.2,77.3,17
57930,463982043,172.0,145.0,-28.0,0,0.436,795.2,77.3,17
57931,463990045,192.0,156.0,-21.0,0,0.453,795.2,77.3,17
57932,463998043,213.0,170.0,-12.0,0,0.466,795.2,77.3,17
57933,464006044,235.0,186.0,-1.0,0,0.476,795.2,77.3,17
57934,464014043,265.0,205.0,12.0,0,0.524,795.2,77.3,17
57935,464022046,288.0,225.0,27.0,0,0.573,795.2,77.3,17
57936,464030043,314.0,247.0,43.0,0,0.614,795.2,77.3,17
57937,464038043,337.0,269.0,61.0,0,0.666,795.2,77.3,17
57938,464046043,360.0,291.0,80.0,0,0.712,795.2,77.3,17
57939,464054046,378.0,312.0,99.0,0,0.75,795.2,77.3,17
57940,464062043,396.0,332.0,119.0,0,0.793,795.2,77.3,17
57941,464070047,407.0,350.0,137.0,0,0.812,795.2,77.3,17
57942,464078043,418.0,367.0,155.0,0,0.838,795.2,77.3,17
57943,464086043,423.0,380.0,171.0,0,0.844,795.2,77.3,17
57944,464094043,429.0,392.0,185.0,0,0.841,795.2,77.3,17
57945,464102043,428.0,401.0,198.0,0,0.843,795.2,77.3,17
57946,464110043,428.0,407.0,208.0,0,0.815,795.2,77.3,17
57947,464118043,422.0,411.0,216.0,0,0.794,795.2,77.3,17
57948,464126043,418.0,413.0,222.0,0,0.769,795.2,77.3,17
57949,464134046,410.0,412.0,225.0,0,0.725,795.2,77.3,17
57950,464142043,399.0,409.0,226.0,0,0.697,795.2,77.3,17
57951,464150043,383.0,403.0,225.0,1,0.695,795.2,77.3,17
57952,464158046,372.0,395.0,221.0,0,0.736,795.2,77.3,17
57953,464166043,359.0,386.0,216.0,0,0.747,795.2,77.3,17
57954,464174044,345.0,376.0,209.0,0,0.771,795.2,77.3,17
57955,464182043,330.0,365.0,200.0,0,0.792,795.2,77.3,17
57956,464190043,319.0,354.0,190.0,0,0.795,795.2,77.3,17
57957,464198043,301.0,341.0,179.0,0,0.795,795.2,77.3,17
57958,464206043,275.0,325.0,167.0,0,0.792,795.2,77.3,17
57959,464214043,270.0,312.0,154.0,0,0.785,795.2,77.3,17
57960,464222043,253.0,297.0,140.0,0,0.773,795.2,77.3,17
57961,464230043,238.0,283.0,126.0,0,0.749,795.2,77.3,17
57962,464238043,230.0,270.0,112.0,0,0.723,795.2,77.3,17
57963,464246043,213.0,256.0,98.0,0,0.696,795.2,77.3,17
57964,464254043,204.0,244.0,85.0,0,0.66,795.2,77.3,17
57965,464262044,195.0,232.0,71.0,0,0.641,795.2,77.3,17
57966,464270043,181.0,220.0,58.0,0,0.603,795.2,77.3,17
57967,464278045,176.0,209.0,46.0,0,0.567,795.2,77.3,17
57968,464286043,168.0,199.0,34.0,0,0.543,795.2,77.3,17
57969,464294046,170.0,192.0,24.0,0,0.498,795.2,77.3,17
57970,464302043,161.0,184.0,15.0,0,0.468,795.2,77.3,17
57971,464310044,157.0,178.0,6.0,0,0.451,795.2,77.3,17
57972,464318043,158.0,173.0,-2.0,0,0.434,795.2,77.3,17
57973,464326046,151.0,168.0,-8.0,0,0.416,795.2,77.3,17
57974,464334044,152.0,164.0,-14.0,0,0.427,795.2,77.3,17
57975,464342043,148.0,160.0,-20.0,0,0.438,795.2,77.3,17
57976,464350043,144.0,156.0,-24.0,0,0.416,795.2,77.3,17
57977,464358043,140.0,152.0,-29.0,0,0.441,795.2,77.3,17
57978,464366043,138.0,149.0,-33.0,0,0.434,795.2,77.3,17
57979,464374043,132.0,145.0,-37.0,0,0.442,795.2,77.3,17
57980,464382043,132.0,142.0,-41.0,0,0.451,795.2,77.3,17
57981,464390044,125.0,138.0,-44.0,0,0.442,795.2,77.3,17
57982,464398044,121.0,134.0,-48.0,0,0.465,795.2,77.3,17
57983,464406043,115.0,129.0,-52.0,0,0.474,795.2,77.3,17
57984,464414045,112.0,125.0,-56.0,0,0.482,795.2,77.3,17
57985,464422043,107.0,121.0,-59.0,0,0.474,795.2,77.3,17
57986,464430044,99.0,115.0,-63.0,0,0.497,795.2,77.3,17
57987,464438045,100.0,112.0,-67.0,0,0.506,795.2,77.3,17
57988,464446043,96.0,108.0,-71.0,0,0.514,795.2,77.3,17
57989,464454045,93.0,104.0,-74.0,0,0.506,795.2,77.3,17
57990,464462046,87.0,100.0,-78.0,0,0.529,795.2,77.3,17
57991,464470043,83.0,96.0,-81.0,0,0.521,795.2,77.3,17
57992,464478043,84.0,93.0,-85.0,0,0.544,795.2,77.3,17
57993,464486046,80.0,90.0,-88.0,0,0.535,795.2,77.3,17
57994,464494044,74.0,86.0,-91.0,0,0.541,795.2,77.3,17
57995,464502046,78.0,84.0,-93.0,0,0.53,795.2,77.3,17
57996,464510043,73.0,81.0,-96.0,0,0.551,795.2,77.3,17
57997,464518045,72.0,79.0,-98.0,0,0.54,795.2,77.3,17
57998,464526043,73.0,78.0,-99.0,0,0.528,795.2,77.3,17
57999,464534043,69.0,76.0,-101.0,0,0.546,795.2,77.3,17
58000,464542043,69.0,74.0,-103.0,0,0.55,795.2,77.3,17
58001,464550045,66.0,72.0,-104.0,0,0.537,795.2,77.3,17
58002,464558043,73.0,72.0,-105.0,0,0.539,795.2,77.3,17
58003,464566046,74.0,73.0,-105.0,1,0.525,795.2,77.3,17
58004,464574045,70.0,72.0,-105.0,0,0.525,795.2,77.3,17
58005,464582043,71.0,72.0,-105.0,0,0.525,795.2,77.3,17
58006,464590044,76.0,73.0,-104.0,0,0.536,795.2,77.3,17
58007,464598046,76.0,74.0,-104.0,1,0.523,795.2,77.3,17
58008,464606046,79.0,75.0,-102.0,0,0.546,795.2,77.3,17
58009,464614044,80.0,76.0,-101.0,0,0.53,795.2,77.3,17
58010,464622043,80.0,77.0,-100.0,0,0.528,795.2,77.3,17
58011,464630045,83.0,79.0,-98.0,0,0.538,795.2,77.3,17
58012,464638044,89.0,81.0,-96.0,0,0.534,795.2,77.3,17
58013,464646043,86.0,82.0,-94.0,0,0.53,795.2,77.3,17
58014,464654044,92.0,85.0,-92.0,0,0.526,795.2,77.3,17
58015,464662044,94.0,87.0,-89.0,0,0.534,795.2,77.3,17
58016,464670043,99.0,90.0,-87.0,0,0.515,795.2,77.3,17
58017,464678043,103.0,93.0,-84.0,0,0.524,795.2,77.3,17
58018,464686043,105.0,96.0,-81.0,0,0.517,795.2,77.3,17
58019,464694043,108.0,99.0,-77.0,0,0.524,795.2,77.3,17
58020,464702043,108.0,101.0,-74.0,0,0.503,795.2,77.3,17
58021,464710047,110.0,103.0,-71.0,0,0.497,795.2,77.3,17
58022,464718043,110.0,105.0,-69.0,0,0.478,795.2,77.3,17
58023,464726044,110.0,106.0,-66.0,0,0.486,795.2,77.3,17
58024,464734044,114.0,108.0,-64.0,0,0.467,795.2,77.3,17
58025,464742044,118.0,110.0,-62.0,0,0.463,795.2,77.3,17
58026,464750043,116.0,112.0,-59.0,0,0.471,795.2,77.3,17
58027,464758043,115.0,113.0,-57.0,0,0.453,795.2,77.3,17
58028,464766043,114.0,113.0,-56.0,0,0.436,795.2,77.3,17
58029,464774044,118.0,114.0,-54.0,0,0.446,795.2,77.3,17
58030,464782043,116.0,115.0,-53.0,0,0.43,795.2,77.3,17
58031,464790044,114.0,114.0,-52.0,0,0.428,795.2,77.3,17
58032,464798043,115.0,115.0,-51.0,0,0.426,795.2,77.3,17
58033,464806045,116.0,115.0,-50.0,0,0.423,795.2,77.3,17
58034,464814043,116.0,115.0,-49.0,0,0.421,795.2,77.3,17
58035,464822043,127.0,118.0,-48.0,0,0.419,795.2,77.3,17
58036,464830044,127.0,120.0,-46.0,0,0.429,795.2,77.3,17
58037,464838043,146.0,126.0,-43.0,0,0.437,795.2,77.3,17
58038,464846044,153.0,133.0,-39.0,0,0.444,795.2,77.3,17
58039,464854043,173.0,143.0,-33.0,0,0.462,795.2,77.3,17
58040,464862043,196.0,156.0,-26.0,0,0.464,795.2,77.3,17
58041,464870046,220.0,171.0,-16.0,0,0.487,795.2,77.3,17
58042,464878043,246.0,189.0,-3.0,0,0.5,795.2,77.3,17
58043,464886046,272.0,209.0,11.0,0,0.523,795.2,77.3,17
58044,464894043,300.0,231.0,28.0,0,0.58,795.2,77.3,17
58045,464902044,328.0,255.0,46.0,0,0.623,795.2,77.3,17
58046,464910043,349.0,278.0,65.0,0,0.668,795.2,77.3,17
58047,464918047,372.0,300.0,85.0,0,0.715,795.2,77.3,17
58048,464926043,389.0,322.0,105.0,0,0.754,795.2,77.3,17
58049,464934043,404.0,342.0,125.0,0,0.79,795.2,77.3,17
58050,464942043,417.0,360.0,144.0,0,0.816,795.2,77.3,17
58051,464950043,420.0,375.0,162.0,0,0.835,795.2,77.3,17
58052,464958043,428.0,388.0,177.0,0,0.831,795.2,77.3,17
58053,464966044,430.0,398.0,191.0,0,0.836,795.2,77.3,17
58054,464974043,431.0,406.0,203.0,0,0.826,795.2,77.3,17
58055,464982043,428.0,411.0,212.0,0,0.796,795.2,77.3,17
58056,464990043,422.0,414.0,219.0,0,0.773,795.2,77.3,17
58057,464998043,414.0,414.0,223.0,0,0.732,795.2,77.3,17
58058,465006043,404.0,411.0,226.0,0,0.719,795.2,77.3,17
58059,465014043,396.0,408.0,226.0,1,0.677,795.2,77.3,17
58060,465022043,383.0,402.0,224.0,0,0.702,795.2,77.3,17
58061,465030043,369.0,394.0,219.0,0,0.742,795.2,77.3,17
58062,465038044,361.0,386.0,214.0,0,0.738,795.2,77.3,17
58063,465046043,344.0,376.0,206.0,0,0.775,795.2,77.3,17
58064,465054043,331.0,365.0,198.0,0,0.767,795.2,77.3,17
58065,465062043,319.0,354.0,188.0,0,0.784,795.2,77.3,17
58066,465070043,300.0,341.0,177.0,0,0.784,795.2,77.3,17
58067,465078043,285.0,327.0,165.0,0,0.78,795.2,77.3,17
58068,465086043,272.0,314.0,153.0,0,0.763,795.2,77.3,17
58069,465094043,249.0,298.0,139.0,0,0.762,795.2,77.3,17
58070,465102043,237.0,283.0,125.0,0,0.739,795.2,77.3,17
58071,465110043,218.0,267.0,110.0,0,0.72,795.2,77.3,17
58072,465118043,209.0,253.0,95.0,0,0.691,795.2,77.3,17
58073,465126046,196.0,239.0,81.0,0,0.654,795.2,77.3,17
58074,465134043,184.0,226.0,67.0,0,0.625,795.2,77.3,17
58075,465142045,173.0,213.0,53.0,0,0.596,795.2,77.3,17
58076,465150043,164.0,201.0,39.0,0,0.568,795.2,77.3,17
58077,465158045,157.0,191.0,27.0,0,0.523,795.2,77.3,17
58078,465166043,152.0,181.0,15.0,0,0.501,795.2,77.3,17
58079,465174047,148.0,173.0,5.0,0,0.458,795.2,77.3,17
58080,465182044,141.0,165.0,-5.0,0,0.465,795.2,77.3,17
58081,465190047,136.0,158.0,-14.0,0,0.468,795.2,77.3,17
58082,465198043,133.0,152.0,-22.0,0,0.469,795.2,77.3,17
58083,465206043,127.0,146.0,-29.0,0,0.468,795.2,77.3,17
58084,465214043,119.0,139.0,-37.0,0,0.497,795.2,77.3,17
58085,465222043,120.0,135.0,-43.0,0,0.48,795.2,77.3,17
58086,465230046,115.0,130.0,-49.0,0,0.492,795.2,77.3,17
58087,465238045,112.0,126.0,-54.0,0,0.487,795.2,77.3,17
58088,465246043,109.0,122.0,-58.0,0,0.481,795.2,77.3,17
58089,465254043,104.0,117.0,-63.0,0,0.505,795.2,77.3,17
58090,465262045,105.0,114.0,-67.0,0,0.499,795.2,77.3,17
58091,465270044,100.0,111.0,-70.0,0,0.49,795.2,77.3,17
58092,465278044,100.0,108.0,-74.0,0,0.512,795.2,77.3,17
58093,465286043,88.0,103.0,-77.0,0,0.504,795.2,77.3,17
58094,465294045,90.0,100.0,-80.0,0,0.51,795.2,77.3,17
58095,465302046,84.0,96.0,-84.0,0,0.532,795.2,77.3,17
58096,465310047,81.0,93.0,-87.0,0,0.523,795.2,77.3,17
58097,465318045,77.0,89.0,-90.0,0,0.529,795.2,77.3,17
58098,465326044,69.0,84.0,-93.0,0,0.535,795.2,77.3,17
58099,465334047,64.0,79.0,-97.0,0,0.557,795.2,77.3,17
58100,465342043,64.0,75.0,-101.0,0,0.564,795.2,77.3,17
58101,465350044,60.0,72.0,-104.0,0,0.555,795.2,77.3,17
58102,465358043,59.0,69.0,-107.0,0,0.56,795.2,77.3,17
58103,465366045,57.0,66.0,-110.0,0,0.566,795.2,77.3,17
58104,465374043,55.0,63.0,-112.0,0,0.555,795.2,77.3,17
58105,465382044,54.0,61.0,-114.0,0,0.558,795.2,77.3,17
58106,465390043,54.0,59.0,-116.0,0,0.562,795.2,77.3,17
58107,465398045,52.0,58.0,-118.0,0,0.565,795.2,77.3,17
58108,465406043,55.0,57.0,-119.0,0,0.553,795.2,77.3,17
58109,465414046,56.0,57.0,-119.0,1,0.54,795.2,77.3,17
58110,465422043,60.0,57.0,-119.0,0,0.539,795.2,77.3,17
58111,465430044,60.0,58.0,-119.0,0,0.539,795.2,77.3,17
58112,465438043,63.0,59.0,-118.0,0,0.55,795.2,77.3,17
58113,465446046,64.0,60.0,-117.0,0,0.548,795.2,77.3,17
58114,465454043,65.0,62.0,-116.0,0,0.546,795.2,77.3,17
58115,465462043,69.0,63.0,-114.0,0,0.556,795.2,77.3,17
58116,465470043,68.0,64.0,-112.0,0,0.553,795.2,77.3,17
58117,465478045,71.0,66.0,-110.0,0,0.549,795.2,77.3,17
58118,465486043,69.0,67.0,-108.0,0,0.545,795.2,77.3,17
58119,465494046,72.0,68.0,-107.0,0,0.529,795.2,77.3,17
58120,465502043,78.0,70.0,-104.0,0,0.551,795.2,77.3,17
58121,465510045,80.0,73.0,-102.0,0,0.533,795.2,77.3,17
58122,465518043,84.0,75.0,-99.0,0,0.542,795.2,77.3,17
58123,465526047,85.0,78.0,-97.0,0,0.524,795.2,77.3,17
58124,465534046,88.0,80.0,-94.0,0,0.532,795.2,77.3,17
58125,465542043,92.0,83.0,-91.0,0,0.526,795.2,77.3,17
58126,465550044,91.0,85.0,-88.0,0,0.52,795.2,77.3,17
58127,465558043,95.0,87.0,-85.0,0,0.514,795.2,77.3,17
58128,465566043,92.0,89.0,-83.0,0,0.496,795.2,77.3,17
58129,465574047,97.0,91.0,-80.0,0,0.504,795.2,77.3,17
58130,465582044,98.0,92.0,-78.0,0,0.486,795.2,77.3,17
58131,465590047,100.0,94.0,-75.0,0,0.494,795.2,77.3,17
58132,465598045,103.0,96.0,-73.0,0,0.476,795.2,77.3,17
58133,465606044,102.0,98.0,-71.0,0,0.472,795.2,77.3,17
58134,465614043,104.0,99.0,-68.0,0,0.48,795.2,77.3,17
58135,465622047,107.0,101.0,-66.0,0,0.462,795.2,77.3,17
58136,465630044,102.0,101.0,-64.0,0,0.458,795.2,77.3,17
58137,465638043,104.0,102.0,-63.0,0,0.442,795.2,77.3,17
58138,465646044,102.0,102.0,-62.0,0,0.44,795.2,77.3,17
58139,465654043,109.0,104.0,-60.0,0,0.449,795.2,77.3,17
58140,465662044,116.0,107.0,-58.0,0,0.445,795.2,77.3,17
58141,465670044,120.0,110.0,-56.0,0,0.441,795.2,77.3,17
58142,465678044,137.0,116.0,-52.0,0,0.462,795.2,77.3,17
58143,465686043,150.0,125.0,-47.0,0,0.467,795.2,77.3,17
58144,465694043,171.0,136.0,-40.0,0,0.482,795.2,77.3,17
58145,465702043,200.0,151.0,-31.0,0,0.493,795.2,77.3,17
58146,465710046,220.0,168.0,-19.0,0,0.508,795.2,77.3,17
58147,465718043,247.0,187.0,-6.0,0,0.496,795.2,77.3,17
58148,465726043,272.0,208.0,10.0,0,0.533,795.2,77.3,17
58149,465734043,300.0,230.0,27.0,0,0.571,795.2,77.3,17
58150,465742047,324.0,253.0,46.0,0,0.621,795.2,77.3,17
58151,465750045,345.0,275.0,65.0,0,0.658,795.2,77.3,17
58152,465758045,369.0,298.0,85.0,0,0.703,795.2,77.3,17
58153,465766043,383.0,319.0,105.0,0,0.741,795.2,77.3,17
58154,465774043,396.0,337.0,125.0,0,0.776,795.2,77.3,17
58155,465782043,405.0,354.0,143.0,0,0.793,795.2,77.3,17
58156,465790047,411.0,368.0,159.0,0,0.801,795.2,77.3,17
58157,465798046,416.0,379.0,174.0,0,0.812,795.2,77.3,17
58158,465806043,414.0,388.0,187.0,0,0.807,795.2,77.3,17
58159,465814046,413.0,394.0,197.0,0,0.782,795.2,77.3,17
58160,465822043,413.0,399.0,205.0,0,0.764,795.2,77.3,17
58161,465830043,403.0,400.0,211.0,0,0.741,795.2,77.3,17
58162,465838044,401.0,400.0,215.0,0,0.715,795.2,77.3,17
58163,465846043,383.0,396.0,216.0,0,0.674,795.2,77.3,17
58164,465854047,380.0,392.0,215.0,1,0.673,795.2,77.3,17
58165,465862043,370.0,387.0,213.0,0,0.685,795.2,77.3,17
58166,465870043,358.0,380.0,209.0,0,0.71,795.2,77.3,17
58167,465878043,340.0,370.0,203.0,0,0.733,795.2,77.3,17
58168,465886043,332.0,361.0,195.0,0,0.754,795.2,77.3,17
58169,465894043,318.0,350.0,187.0,0,0.746,795.2,77.3,17
58170,465902043,302.0,339.0,177.0,0,0.761,795.2,77.3,17
58171,465910043,286.0,326.0,166.0,0,0.76,795.2,77.3,17
58172,465918043,272.0,313.0,155.0,0,0.745,795.2,77.3,17
58173,465926044,255.0,299.0,142.0,0,0.748,795.2,77.3,17
58174,465934044,244.0,286.0,129.0,0,0.728,795.2,77.3,17
58175,465942043,229.0,272.0,116.0,0,0.705,795.2,77.3,17
58176,465950045,213.0,258.0,102.0,0,0.69,795.2,77.3,17
58177,465958047,207.0,245.0,88.0,0,0.664,795.2,77.3,17
58178,465966045,194.0,233.0,75.0,0,0.628,795.2,77.3,17
58179,465974043,183.0,221.0,62.0,0,0.603,795.2,77.3,17
58180,465982043,181.0,211.0,50.0,0,0.568,795.2,77.3,17
58181,465990043,172.0,202.0,39.0,0,0.535,795.2,77.3,17
58182,465998047,170.0,194.0,29.0,0,0.503,795.2,77.3,17
58183,466006044,156.0,185.0,19.0,0,0.485,795.2,77.3,17
58184,466014043,156.0,178.0,10.0,0,0.456,795.2,77.3,17
58185,466022043,151.0,171.0,1.0,0,0.44,795.2,77.3,17
58186,466030044,147.0,165.0,-6.0,0,0.421,795.2,77.3,17
58187,466038043,148.0,161.0,-13.0,0,0.433,795.2,77.3,17
58188,466046043,143.0,157.0,-19.0,0,0.429,795.2,77.3,17
58189,466054043,139.0,152.0,-24.0,0,0.424,795.2,77.3,17
58190,466062043,134.0,148.0,-29.0,0,0.433,795.2,77.3,17
58191,466070043,127.0,143.0,-34.0,0,0.442,795.2,77.3,17
58192,466078043,122.0,138.0,-39.0,0,0.452,795.2,77.3,17
58193,466086043,118.0,133.0,-44.0,0,0.462,795.2,77.3,17
58194,466094043,109.0,127.0,-49.0,0,0.471,795.2,77.3,17
58195,466102046,111.0,123.0,-53.0,0,0.464,795.2,77.3,17
58196,466110043,99.0,117.0,-58.0,0,0.489,795.2,77.3,17
58197,466118043,99.0,113.0,-63.0,0,0.499,795.2,77.3,17
58198,466126043,95.0,109.0,-67.0,0,0.492,795.2,77.3,17
58199,466134043,86.0,103.0,-71.0,0,0.5,795.2,77.3,17
58200,466142043,84.0,98.0,-76.0,0,0.524,795.2,77.3,17
58201,466150043,78.0,94.0,-80.0,0,0.517,795.2,77.3,17
58202,466158043,73.0,89.0,-85.0,0,0.541,795.2,77.3,17
58203,466166043,68.0,84.0,-89.0,0,0.534,795.2,77.3,17
58204,466174043,64.0,79.0,-93.0,0,0.542,795.2,77.3,17
58205,466182043,64.0,75.0,-97.0,0,0.549,795.2,77.3,17
58206,466190043,58.0,71.0,-101.0,0,0.556,795.2,77.3,17
58207,466198043,58.0,68.0,-104.0,0,0.548,795.2,77.3,17
58208,466206043,57.0,65.0,-107.0,0,0.553,795.2,77.3,17
58209,466214046,60.0,64.0,-109.0,0,0.542,795.2,77.3,17
58210,466222043,56.0,62.0,-111.0,0,0.546,795.2,77.3,17
58211,466230045,54.0,60.0,-113.0,0,0.549,795.2,77.3,17
58212,466238043,61.0,60.0,-114.0,0,0.537,795.2,77.3,17
58213,466246045,53.0,59.0,-115.0,0,0.539,795.2,77.3,17
58214,466254043,59.0,59.0,-115.0,1,0.526,795.2,77.3,17
58215,466262043,58.0,58.0,-115.0,0,0.525,795.2,77.3,17
58216,466270043,59.0,59.0,-115.0,0,0.525,795.2,77.3,17
58217,466278044,61.0,59.0,-115.0,0,0.525,795.2,77.3,17
58218,466286043,62.0,60.0,-114.0,0,0.536,795.2,77.3,17
58219,466294044,60.0,60.0,-113.0,0,0.534,795.2,77.3,17
58220,466302043,67.0,62.0,-112.0,0,0.532,795.2,77.3,17
58221,466310044,69.0,63.0,-110.0,0,0.542,795.2,77.3,17
58222,466318043,72.0,65.0,-108.0,0,0.539,795.2,77.3,17
58223,466326046,74.0,68.0,-106.0,0,0.535,795.2,77.3,17
58224,466334043,76.0,70.0,-104.0,0,0.531,795.2,77.3,17
58225,466342045,80.0,72.0,-101.0,0,0.539,795.2,77.3,17
58226,466350043,80.0,74.0,-99.0,0,0.522,795.2,77.3,17
58227,466358046,85.0,77.0,-96.0,0,0.53,795.2,77.3,17
58228,466366046,88.0,79.0,-93.0,0,0.524,795.2,77.3,17
58229,466374044,93.0,83.0,-90.0,0,0.518,795.2,77.3,17
58230,466382043,98.0,86.0,-87.0,0,0.513,795.2,77.3,17
58231,466390043,100.0,90.0,-83.0,0,0.519,795.2,77.3,17
58232,466398043,105.0,93.0,-79.0,0,0.511,795.2,77.3,17
58233,466406043,104.0,96.0,-76.0,0,0.491,795.2,77.3,17
58234,466414043,106.0,98.0,-72.0,0,0.498,795.2,77.3,17
58235,466422043,111.0,101.0,-69.0,0,0.477,795.2,77.3,17
58236,466430043,108.0,103.0,-66.0,0,0.472,795.2,77.3,17
58237,466438045,110.0,105.0,-63.0,0,0.466,795.2,77.3,17
58238,466446043,114.0,107.0,-61.0,0,0.448,795.2,77.3,17
58239,466454043,115.0,109.0,-58.0,0,0.456,795.2,77.3,17
58240,466462043,116.0,111.0,-56.0,0,0.438,795.2,77.3,17
58241,466470046,114.0,111.0,-54.0,0,0.434,795.2,77.3,17
58242,466478043,123.0,114.0,-51.0,0,0.442,795.2,77.3,17
58243,466486045,124.0,117.0,-49.0,0,0.424,795.2,77.3,17
58244,466494043,132.0,120.0,-46.0,0,0.433,795.2,77.3,17
58245,466502043,141.0,125.0,-42.0,0,0.439,795.2,77.3,17
58246,466510043,156.0,133.0,-38.0,0,0.432,795.2,77.3,17
58247,466518047,175.0,143.0,-31.0,0,0.462,795.2,77.3,17
58248,466526043,192.0,155.0,-23.0,0,0.462,795.2,77.3,17
58249,466534046,217.0,170.0,-14.0,0,0.459,795.2,77.3,17
58250,466542045,244.0,188.0,-1.0,0,0.485,795.2,77.3,17
58251,466550043,271.0,208.0,13.0,0,0.518,795.2,77.3,17
58252,466558046,298.0,230.0,29.0,0,0.564,795.2,77.3,17
58253,466566043,324.0,253.0,47.0,0,0.612,795.2,77.3,17
58254,466574046,346.0,275.0,66.0,0,0.654,795.2,77.3,17
58255,466582043,367.0,298.0,86.0,0,0.697,795.2,77.3,17
58256,466590043,383.0,318.0,106.0,0,0.733,795.2,77.3,17
58257,466598043,401.0,338.0,125.0,0,0.759,795.2,77.3,17
58258,466606047,412.0,356.0,144.0,0,0.789,795.2,77.3,17
58259,466614043,420.0,372.0,161.0,0,0.799,795.2,77.3,17
58260,466622044,427.0,385.0,177.0,0,0.811,795.2,77.3,17
58261,466630045,427.0,395.0,191.0,0,0.809,795.2,77.3,17
58262,466638043,424.0,402.0,202.0,0,0.787,795.2,77.3,17
58263,466646045,421.0,407.0,211.0,0,0.771,795.2,77.3,17
58264,466654043,418.0,409.0,218.0,0,0.75,795.2,77.3,17
58265,466662044,412.0,410.0,223.0,0,0.725,795.2,77.3,17
58266,466670044,400.0,408.0,225.0,0,0.685,795.2,77.3,17
58267,466678046,391.0,404.0,225.0,1,0.658,795.2,77.3,17
58268,466686043,377.0,397.0,223.0,0,0.683,795.2,77.3,17
58269,466694043,366.0,390.0,218.0,0,0.721,795.2,77.3,17
58270,466702044,349.0,380.0,212.0,0,0.73,795.2,77.3,17
58271,466710046,336.0,369.0,204.0,0,0.751,795.2,77.3,17
58272,466718047,321.0,357.0,195.0,0,0.755,795.2,77.3,17
58273,466726043,305.0,345.0,185.0,0,0.758,795.2,77.3,17
58274,466734043,288.0,331.0,173.0,0,0.767,795.2,77.3,17
58275,466742044,276.0,318.0,160.0,0,0.761,795.2,77.3,17
58276,466750043,252.0,302.0,147.0,0,0.743,795.2,77.3,17
58277,466758043,240.0,287.0,133.0,0,0.732,795.2,77.3,17
58278,466766043,226.0,272.0,118.0,0,0.717,795.2,77.3,17
58279,466774043,211.0,257.0,103.0,0,0.691,795.2,77.3,17
58280,466782043,200.0,243.0,89.0,0,0.656,795.2,77.3,17
58281,466790045,186.0,229.0,74.0,0,0.637,795.2,77.3,17
58282,466798043,181.0,218.0,61.0,0,0.593,795.2,77.3,17
58283,466806043,169.0,206.0,47.0,0,0.577,795.2,77.3,17
58284,466814043,160.0,195.0,35.0,0,0.534,795.2,77.3,17
58285,466822045,155.0,185.0,23.0,0,0.512,795.2,77.3,17
58286,466830043,148.0,176.0,12.0,0,0.481,795.2,77.3,17
58287,466838044,153.0,171.0,3.0,0,0.441,795.2,77.3,17
58288,466846043,144.0,164.0,-6.0,0,0.444,795.2,77.3,17
58289,466854046,142.0,159.0,-13.0,0,0.429,795.2,77.3,17
58290,466862043,139.0,154.0,-20.0,0,0.441,795.2,77.3,17
58291,466870043,132.0,149.0,-26.0,0,0.438,795.2,77.3,17
58292,466878043,127.0,143.0,-32.0,0,0.448,795.2,77.3,17
58293,466886043,130.0,140.0,-37.0,0,0.443,795.2,77.3,17
58294,466894043,122.0,136.0,-42.0,0,0.453,795.2,77.3,17
58295,466902044,123.0,133.0,-46.0,0,0.446,795.2,77.3,17
58296,466910043,116.0,129.0,-50.0,0,0.453,795.2,77.3,17
58297,466918043,110.0,124.0,-54.0,0,0.461,795.2,77.3,17
58298,466926045,104.0,119.0,-58.0,0,0.468,795.2,77.3,17
58299,466934043,102.0,115.0,-62.0,0,0.476,795.2,77.3,17
58300,466942043,103.0,112.0,-66.0,0,0.483,795.2,77.3,17
58301,466950043,96.0,108.0,-69.0,0,0.475,795.2,77.3,17
58302,466958045,92.0,104.0,-73.0,0,0.496,795.2,77.3,17
58303,466966044,89.0,101.0,-76.0,0,0.488,795.2,77.3,17
58304,466974045,85.0,97.0,-79.0,0,0.493,795.2,77.3,17
58305,466982045,80.0,93.0,-83.0,0,0.515,795.2,77.3,17
58306,466990044,77.0,89.0,-86.0,0,0.506,795.2,77.3,17
58307,466998046,76.0,86.0,-89.0,0,0.512,795.2,77.3,17
58308,467006044,66.0,81.0,-93.0,0,0.533,795.2,77.3,17
58309,467014047,68.0,78.0,-96.0,0,0.525,795.2,77.3,17
58310,467022043,64.0,74.0,-99.0,0,0.53,795.2,77.3,17
58311,467030046,67.0,73.0,-101.0,0,0.52,795.2,77.3,17
58312,467038043,62.0,70.0,-103.0,0,0.523,795.2,77.3,17
58313,467046043,62.0,68.0,-105.0,0,0.526,795.2,77.3,17
58314,467054043,65.0,67.0,-107.0,0,0.53,795.2,77.3,17
58315,467062045,60.0,66.0,-108.0,0,0.518,795.2,77.3,17
58316,467070043,60.0,64.0,-109.0,0,0.52,795.2,77.3,17
58317,467078045,61.0,63.0,-110.0,0,0.521,795.2,77.3,17
58318,467086043,61.0,63.0,-111.0,0,0.523,795.2,77.3,17
58319,467094043,64.0,63.0,-111.0,1,0.51,795.2,77.3,17
58320,467102043,58.0,62.0,-111.0,0,0.51,795.2,77.3,17
58321,467110046,60.0,61.0,-111.0,0,0.51,795.2,77.3,17
58322,467118043,64.0,62.0,-111.0,0,0.51,795.2,77.3,17
58323,467126046,67.0,63.0,-110.0,0,0.521,795.2,77.3,17
58324,467134043,67.0,64.0,-109.0,0,0.519,795.2,77.3,17
58325,467142046,71.0,66.0,-107.0,0,0.529,795.2,77.3,17
58326,467150043,70.0,67.0,-106.0,0,0.514,795.2,77.3,17
58327,467158046,75.0,69.0,-104.0,0,0.523,795.2,77.3,17
58328,467166043,70.0,69.0,-102.0,0,0.52,795.2,77.3,17
58329,467174045,79.0,72.0,-100.0,0,0.516,795.2,77.3,17
58330,467182043,81.0,74.0,-98.0,0,0.512,795.2,77.3,17
58331,467190047,83.0,76.0,-96.0,0,0.509,795.2,77.3,17
58332,467198044,85.0,78.0,-93.0,0,0.517,795.2,77.3,17
58333,467206043,85.0,80.0,-91.0,0,0.499,795.2,77.3,17
58334,467214043,92.0,83.0,-88.0,0,0.508,795.2,77.3,17
58335,467222043,88.0,84.0,-86.0,0,0.49,795.2,77.3,17
58336,467230045,93.0,86.0,-83.0,0,0.498,795.2,77.3,17
58337,467238043,92.0,88.0,-81.0,0,0.481,795.2,77.3,17
58338,467246045,103.0,91.0,-78.0,0,0.489,795.2,77.3,17
58339,467254043,94.0,92.0,-76.0,0,0.471,795.2,77.3,17
58340,467262043,96.0,93.0,-73.0,0,0.479,795.2,77.3,17
58341,467270047,96.0,94.0,-72.0,0,0.45,795.2,77.3,17
58342,467278043,100.0,95.0,-70.0,0,0.46,795.2,77.3,17
58343,467286043,96.0,95.0,-68.0,0,0.456,795.2,77.3,17
58344,467294043,95.0,95.0,-67.0,0,0.44,795.2,77.3,17
58345,467302047,102.0,97.0,-66.0,0,0.438,795.2,77.3,17
58346,467310043,107.0,99.0,-64.0,0,0.448,795.2,77.3,17
58347,467318045,117.0,104.0,-61.0,0,0.456,795.2,77.3,17
58348,467326043,124.0,109.0,-58.0,0,0.45,795.2,77.3,17
58349,467334045,147.0,118.0,-53.0,0,0.469,795.2,77.3,17
58350,467342045,164.0,129.0,-46.0,0,0.485,795.2,77.3,17
58351,467350043,185.0,143.0,-37.0,0,0.495,795.2,77.3,17
58352,467358043,211.0,159.0,-26.0,0,0.5,795.2,77.3,17
58353,467366044,232.0,177.0,-13.0,0,0.5,795.2,77.3,17
58354,467374043,263.0,198.0,2.0,0,0.51,795.2,77.3,17
58355,467382046,285.0,219.0,19.0,0,0.555,795.2,77.3,17
58356,467390043,308.0,240.0,37.0,0,0.594,795.2,77.3,17
58357,467398044,332.0,263.0,56.0,0,0.635,795.2,77.3,17
58358,467406043,354.0,285.0,75.0,0,0.67,795.2,77.3,17
58359,467414044,366.0,304.0,95.0,0,0.712,795.2,77.3,17
58360,467422043,379.0,323.0,114.0,0,0.738,795.2,77.3,17
58361,467430045,383.0,337.0,131.0,0,0.751,795.2,77.3,17
58362,467438043,391.0,350.0,146.0,0,0.756,795.2,77.3,17
58363,467446043,392.0,360.0,160.0,0,0.765,795.2,77.3,17
58364,467454046,393.0,368.0,172.0,0,0.759,795.2,77.3,17
58365,467462043,392.0,374.0,181.0,0,0.733,795.2,77.3,17
58366,467470043,383.0,376.0,188.0,0,0.714,795.2,77.3,17
58367,467478043,376.0,376.0,193.0,0,0.691,795.2,77.3,17
58368,467486046,365.0,373.0,195.0,0,0.652,795.2,77.3,17
58369,467494045,359.0,370.0,195.0,1,0.626,795.2,77.3,17
58370,467502043,345.0,364.0,193.0,0,0.649,795.2,77.3,17
58371,467510043,334.0,357.0,190.0,0,0.659,795.2,77.3,17
58372,467518043,321.0,348.0,184.0,0,0.694,795.2,77.3,17
58373,467526043,305.0,338.0,177.0,0,0.7,795.2,77.3,17
58374,467534043,292.0,327.0,168.0,0,0.716,795.2,77.3,17
58375,467542043,278.0,315.0,159.0,0,0.705,795.2,77.3,17
58376,467550043,261.0,302.0,148.0,0,0.715,795.2,77.3,17
58377,467558043,250.0,289.0,136.0,0,0.709,795.2,77.3,17
58378,467566043,231.0,275.0,124.0,0,0.69,795.2,77.3,17
58379,467574043,218.0,261.0,111.0,0,0.68,795.2,77.3,17
58380,467582043,204.0,247.0,97.0,0,0.666,795.2,77.3,17
58381,467590044,192.0,234.0,84.0,0,0.633,795.2,77.3,17
58382,467598043,185.0,222.0,71.0,0,0.609,795.2,77.3,17
58383,467606043,168.0,209.0,57.0,0,0.594,795.2,77.3,17
58384,467614043,164.0,198.0,45.0,0,0.551,795.2,77.3,17
58385,467622044,159.0,189.0,33.0,0,0.53,795.2,77.3,17
58386,467630043,143.0,178.0,22.0,0,0.499,795.2,77.3,17
58387,467638045,144.0,169.0,11.0,0,0.48,795.2,77.3,17
58388,467646043,144.0,163.0,2.0,0,0.441,795.2,77.3,17
58389,467654043,140.0,158.0,-6.0,0,0.426,795.2,77.3,17
58390,467662046,140.0,153.0,-13.0,0,0.424,795.2,77.3,17
58391,467670043,136.0,149.0,-19.0,0,0.42,795.2,77.3,17
58392,467678043,133.0,145.0,-25.0,0,0.431,795.2,77.3,17
58393,467686045,127.0,141.0,-30.0,0,0.426,795.2,77.3,17
58394,467694043,127.0,137.0,-34.0,0,0.419,795.2,77.3,17
58395,467702044,130.0,136.0,-38.0,0,0.426,795.2,77.3,17
58396,467710043,123.0,133.0,-41.0,0,0.417,795.2,77.3,17
58397,467718043,121.0,130.0,-44.0,0,0.423,795.2,77.3,17
58398,467726043,116.0,126.0,-47.0,0,0.428,795.2,77.3,17
58399,467734044,115.0,124.0,-50.0,0,0.434,795.2,77.3,17
58400,467742043,112.0,121.0,-53.0,0,0.439,795.2,77.3,17
58401,467750043,112.0,119.0,-55.0,0,0.429,795.2,77.3,17
58402,467758043,109.0,116.0,-58.0,0,0.449,795.2,77.3,17
58403,467766044,101.0,113.0,-60.0,0,0.438,795.2,77.3,17
58404,467774043,100.0,110.0,-63.0,0,0.458,795.2,77.3,17
58405,467782044,97.0,107.0,-65.0,0,0.448,795.2,77.3,17
58406,467790043,89.0,102.0,-68.0,0,0.468,795.2,77.3,17
58407,467798047,88.0,99.0,-71.0,0,0.474,795.2,77.3,17
58408,467806043,85.0,95.0,-74.0,0,0.479,795.2,77.3,17
58409,467814043,84.0,93.0,-77.0,0,0.485,795.2,77.3,17
58410,467822047,83.0,90.0,-79.0,0,0.475,795.2,77.3,17
58411,467830043,83.0,89.0,-81.0,0,0.479,795.2,77.3,17
58412,467838043,76.0,86.0,-84.0,0,0.499,795.2,77.3,17
58413,467846046,80.0,84.0,-85.0,0,0.473,795.2,77.3,17
58414,467854045,79.0,83.0,-87.0,0,0.49,795.2,77.3,17
58415,467862046,76.0,81.0,-88.0,0,0.478,795.2,77.3,17
58416,467870043,74.0,79.0,-89.0,0,0.48,795.2,77.3,17
58417,467878046,77.0,79.0,-90.0,0,0.482,795.2,77.3,17
58418,467886043,77.0,78.0,-91.0,0,0.484,795.2,77.3,17
58419,467894046,80.0,79.0,-91.0,1,0.471,795.2,77.3,17
58420,467902046,79.0,79.0,-91.0,0,0.471,795.2,77.3,17
58421,467910046,76.0,78.0,-91.0,0,0.471,795.2,77.3,17
58422,467918043,79.0,78.0,-91.0,0,0.471,795.2,77.3,17
58423,467926047,80.0,79.0,-90.0,0,0.483,795.2,77.3,17
58424,467934044,82.0,80.0,-90.0,1,0.47,795.2,77.3,17
58425,467942043,81.0,80.0,-89.0,0,0.481,795.2,77.3,17
58426,467950043,85.0,81.0,-88.0,0,0.479,795.2,77.3,17
58427,467958043,88.0,83.0,-86.0,0,0.49,795.2,77.3,17
58428,467966043,86.0,84.0,-85.0,0,0.474,795.2,77.3,17
58429,467974045,88.0,85.0,-83.0,0,0.484,795.2,77.3,17
58430,467982043,89.0,86.0,-82.0,0,0.469,795.2,77.3,17
58431,467990045,92.0,87.0,-80.0,0,0.479,795.2,77.3,17
58432,467998043,97.0,90.0,-78.0,0,0.476,795.2,77.3,17
58433,468006043,99.0,92.0,-76.0,0,0.472,795.2,77.3,17
58434,468014047,101.0,94.0,-74.0,0,0.469,795.2,77.3,17
58435,468022046,104.0,96.0,-71.0,0,0.477,795.2,77.3,17
58436,468030045,108.0,99.0,-69.0,0,0.459,795.2,77.3,17
58437,468038043,108.0,101.0,-66.0,0,0.468,795.2,77.3,17
58438,468046043,109.0,103.0,-64.0,0,0.45,795.2,77.3,17
58439,468054046,112.0,105.0,-61.0,0,0.459,795.2,77.3,17
58440,468062043,112.0,107.0,-59.0,0,0.441,795.2,77.3,17
58441,468070044,117.0,109.0,-56.0,0,0.449,795.2,77.3,17
58442,468078044,119.0,112.0,-54.0,0,0.432,795.2,77.3,17
58443,468086046,116.0,113.0,-51.0,0,0.44,795.2,77.3,17
58444,468094043,117.0,114.0,-50.0,0,0.41,795.2,77.3,17
58445,468102045,122.0,116.0,-48.0,0,0.421,795.2,77.3,17
58446,468110043,124.0,118.0,-45.0,0,0.429,795.2,77.3,17
58447,468118043,127.0,120.0,-43.0,0,0.411,795.2,77.3,17
58448,468126043,143.0,126.0,-40.0,0,0.42,795.2,77.3,17
58449,468134043,154.0,132.0,-36.0,0,0.427,795.2,77.3,17
58450,468142043,169.0,141.0,-30.0,0,0.445,795.2,77.3,17
58451,468150046,186.0,152.0,-23.0,0,0.447,795.2,77.3,17
58452,468158043,205.0,165.0,-14.0,0,0.458,795.2,77.3,17
58453,468166043,227.0,180.0,-4.0,0,0.454,795.2,77.3,17
58454,468174044,254.0,198.0,9.0,0,0.508,795.2,77.3,17
58455,468182046,284.0,219.0,24.0,0,0.555,795.2,77.3,17
58456,468190043,307.0,240.0,40.0,0,0.594,795.2,77.3,17
58457,468198043,331.0,262.0,58.0,0,0.644,795.2,77.3,17
58458,468206044,350.0,283.0,77.0,0,0.687,795.2,77.3,17
58459,468214045,368.0,304.0,96.0,0,0.723,795.2,77.3,17
58460,468222043,383.0,323.0,114.0,0,0.748,795.2,77.3,17
58461,468230043,396.0,341.0,132.0,0,0.777,795.2,77.3,17
58462,468238043,404.0,356.0,149.0,0,0.794,795.2,77.3,17
58463,468246044,408.0,369.0,165.0,0,0.806,795.2,77.3,17
58464,468254043,415.0,380.0,178.0,0,0.792,795.2,77.3,17
58465,468262043,414.0,388.0,190.0,0,0.792,795.2,77.3,17
58466,468270043,411.0,394.0,200.0,0,0.777,795.2,77.3,17
58467,468278043,401.0,395.0,206.0,0,0.729,795.2,77.3,17
58468,468286043,394.0,395.0,211.0,0,0.718,795.2,77.3,17
58469,468294043,383.0,392.0,213.0,0,0.677,795.2,77.3,17
58470,468302043,375.0,388.0,212.0,1,0.662,795.2,77.3,17
58471,468310045,362.0,382.0,210.0,0,0.672,795.2,77.3,17
58472,468318043,351.0,374.0,206.0,0,0.694,795.2,77.3,17
58473,468326043,335.0,365.0,200.0,0,0.716,795.2,77.3,17
58474,468334043,322.0,354.0,192.0,0,0.735,795.2,77.3,17
58475,468342043,306.0,343.0,183.0,0,0.738,795.2,77.3,17
58476,468350043,290.0,330.0,173.0,0,0.739,795.2,77.3,17
58477,468358043,270.0,315.0,161.0,0,0.747,795.2,77.3,17
58478,468366043,255.0,301.0,148.0,0,0.739,795.2,77.3,17
58479,468374043,241.0,286.0,134.0,0,0.727,795.2,77.3,17
58480,468382043,228.0,272.0,121.0,0,0.695,795.2,77.3,17
58481,468390043,212.0,258.0,106.0,0,0.689,795.2,77.3,17
58482,468398043,198.0,243.0,92.0,0,0.654,795.2,77.3,17
58483,468406045,188.0,230.0,78.0,0,0.628,795.2,77.3,17
58484,468414043,176.0,217.0,64.0,0,0.602,795.2,77.3,17
58485,468422043,172.0,206.0,51.0,0,0.567,795.2,77.3,17
58486,468430043,162.0,195.0,39.0,0,0.534,795.2,77.3,17
58487,468438044,159.0,186.0,27.0,0,0.513,795.2,77.3,17
58488,468446043,156.0,179.0,17.0,0,0.471,795.2,77.3,17
58489,468454043,158.0,174.0,8.0,0,0.444,795.2,77.3,17
58490,468462043,154.0,169.0,1.0,0,0.411,795.2,77.3,17
58491,468470046,152.0,165.0,-6.0,0,0.422,795.2,77.3,17
58492,468478043,149.0,161.0,-12.0,0,0.418,795.2,77.3,17
58493,468486043,152.0,159.0,-16.0,0,0.397,795.2,77.3,17
58494,468494043,148.0,156.0,-20.0,0,0.403,795.2,77.3,17
58495,468502045,150.0,155.0,-24.0,0,0.41,795.2,77.3,17
58496,468510043,144.0,152.0,-27.0,0,0.401,795.2,77.3,17
58497,468518043,143.0,150.0,-29.0,0,0.391,795.2,77.3,17
58498,468526043,140.0,148.0,-32.0,0,0.41,795.2,77.3,17
58499,468534043,137.0,145.0,-34.0,0,0.4,795.2,77.3,17
58500,468542047,125.0,140.0,-37.0,0,0.419,795.2,77.3,17
58501,468550043,124.0,136.0,-41.0,0,0.441,795.2,77.3,17
58502,468558043,123.0,133.0,-44.0,0,0.433,795.2,77.3,17
58503,468566044,116.0,129.0,-47.0,0,0.438,795.2,77.3,17
58504,468574043,112.0,125.0,-50.0,0,0.444,795.2,77.3,17
58505,468582043,108.0,121.0,-54.0,0,0.467,795.2,77.3,17
58506,468590044,103.0,116.0,-57.0,0,0.458,795.2,77.3,17
58507,468598047,97.0,112.0,-61.0,0,0.48,795.2,77.3,17
58508,468606043,97.0,108.0,-65.0,0,0.488,795.2,77.3,17
58509,468614043,89.0,104.0,-69.0,0,0.496,795.2,77.3,17
58510,468622045,90.0,100.0,-72.0,0,0.487,795.2,77.3,17
58511,468630043,85.0,97.0,-75.0,0,0.493,795.2,77.3,17
58512,468638043,84.0,93.0,-78.0,0,0.499,795.2,77.3,17
58513,468646043,79.0,90.0,-81.0,0,0.505,795.2,77.3,17
58514,468654043,80.0,88.0,-84.0,0,0.51,795.2,77.3,17
58515,468662046,76.0,85.0,-87.0,0,0.516,795.2,77.3,17
58516,468670043,76.0,83.0,-89.0,0,0.505,795.2,77.3,17
58517,468678047,75.0,81.0,-91.0,0,0.509,795.2,77.3,17
58518,468686043,73.0,79.0,-93.0,0,0.513,795.2,77.3,17
58519,468694046,75.0,78.0,-94.0,0,0.5,795.2,77.3,17
58520,468702043,76.0,77.0,-95.0,0,0.502,795.2,77.3,17
58521,468710046,77.0,77.0,-95.0,1,0.489,795.2,77.3,17
58522,468718045,80.0,78.0,-95.0,0,0.488,795.2,77.3,17
58523,468726043,76.0,78.0,-95.0,0,0.488,795.2,77.3,17
58524,468734043,83.0,79.0,-95.0,0,0.488,795.2,77.3,17
58525,468742046,83.0,80.0,-94.0,0,0.5,795.2,77.3,17
58526,468750045,84.0,81.0,-93.0,0,0.498,795.2,77.3,17
58527,468758046,82.0,81.0,-92.0,0,0.496,795.2,77.3,17
58528,468766045,86.0,82.0,-91.0,0,0.494,795.2,77.3,17
58529,468774046,87.0,83.0,-89.0,0,0.504,795.2,77.3,17
58530,468782043,88.0,85.0,-88.0,0,0.488,795.2,77.3,17
58531,468790043,89.0,86.0,-86.0,0,0.499,795.2,77.3,17
58532,468798043,93.0,87.0,-84.0,0,0.495,795.2,77.3,17
58533,468806043,92.0,89.0,-83.0,0,0.479,795.2,77.3,17
58534,468814047,94.0,90.0,-81.0,0,0.49,795.2,77.3,17
58535,468822043,98.0,92.0,-79.0,0,0.486,795.2,77.3,17
58536,468830047,101.0,94.0,-77.0,0,0.482,795.2,77.3,17
58537,468838046,105.0,97.0,-74.0,0,0.491,795.2,77.3,17
58538,468846043,109.0,100.0,-72.0,0,0.473,795.2,77.3,17
58539,468854044,120.0,105.0,-68.0,0,0.494,795.2,77.3,17
58540,468862043,135.0,112.0,-64.0,0,0.486,795.2,77.3,17
58541,468870044,149.0,121.0,-58.0,0,0.504,795.2,77.3,17
58542,468878043,170.0,133.0,-50.0,0,0.517,795.2,77.3,17
58543,468886043,187.0,146.0,-41.0,0,0.513,795.2,77.3,17
58544,468894043,214.0,162.0,-29.0,0,0.527,795.2,77.3,17
58545,468902043,239.0,181.0,-16.0,0,0.513,795.2,77.3,17
58546,468910043,268.0,202.0,0.0,0,0.521,795.2,77.3,17
58547,468918043,293.0,224.0,17.0,0,0.558,795.2,77.3,17
58548,468926043,316.0,246.0,35.0,0,0.6,795.2,77.3,17
58549,468934045,338.0,269.0,55.0,0,0.651,795.2,77.3,17
58550,468942043,355.0,290.0,74.0,0,0.683,795.2,77.3,17
58551,468950044,368.0,309.0,94.0,0,0.728,795.2,77.3,17
58552,468958043,383.0,327.0,112.0,0,0.748,795.2,77.3,17
58553,468966045,391.0,342.0,130.0,0,0.778,795.2,77.3,17
58554,468974043,397.0,356.0,145.0,0,0.776,795.2,77.3,17
58555,468982043,402.0,367.0,160.0,0,0.795,795.2,77.3,17
58556,468990043,400.0,375.0,172.0,0,0.779,795.2,77.3,17
58557,468998046,396.0,380.0,181.0,0,0.751,795.2,77.3,17
58558,469006043,391.0,383.0,189.0,0,0.745,795.2,77.3,17
58559,469014045,380.0,382.0,193.0,0,0.693,795.2,77.3,17
58560,469022043,373.0,380.0,195.0,0,0.666,795.2,77.3,17
58561,469030043,363.0,376.0,196.0,0,0.653,795.2,77.3,17
58562,469038043,351.0,370.0,194.0,1,0.662,795.2,77.3,17
58563,469046045,340.0,363.0,190.0,0,0.682,795.2,77.3,17
58564,469054043,327.0,354.0,184.0,0,0.701,795.2,77.3,17
58565,469062044,313.0,344.0,177.0,0,0.704,795.2,77.3,17
58566,469070043,299.0,333.0,169.0,0,0.705,795.2,77.3,17
58567,469078043,282.0,321.0,159.0,0,0.715,795.2,77.3,17
58568,469086047,268.0,308.0,148.0,0,0.709,795.2,77.3,17
58569,469094043,249.0,294.0,136.0,0,0.699,795.2,77.3,17
58570,469102045,229.0,278.0,123.0,0,0.686,795.2,77.3,17
58571,469110047,214.0,262.0,109.0,0,0.669,795.2,77.3,17
58572,469118045,204.0,248.0,94.0,0,0.649,795.2,77.3,17
58573,469126043,190.0,234.0,80.0,0,0.611,795.2,77.3,17
58574,469134047,179.0,221.0,66.0,0,0.584,795.2,77.3,17
58575,469142044,169.0,208.0,52.0,0,0.558,795.2,77.3,17
58576,469150043,161.0,197.0,39.0,0,0.524,795.2,77.3,17
58577,469158045,156.0,187.0,27.0,0,0.493,795.2,77.3,17
58578,469166043,144.0,176.0,16.0,0,0.463,795.2,77.3,17
58579,469174045,144.0,169.0,5.0,0,0.472,795.2,77.3,17
58580,469182044,143.0,162.0,-4.0,0,0.462,795.2,77.3,17
58581,469190043,137.0,156.0,-12.0,0,0.463,795.2,77.3,17
58582,469198043,134.0,151.0,-20.0,0,0.477,795.2,77.3,17
58583,469206043,133.0,147.0,-26.0,0,0.46,795.2,77.3,17
58584,469214043,131.0,143.0,-32.0,0,0.471,795.2,77.3,17
58585,469222043,124.0,138.0,-37.0,0,0.466,795.2,77.3,17
58586,469230043,121.0,134.0,-42.0,0,0.475,795.2,77.3,17
58587,469238047,120.0,131.0,-46.0,0,0.468,795.2,77.3,17
58588,469246043,118.0,128.0,-50.0,0,0.475,795.2,77.3,17
58589,469254045,116.0,125.0,-53.0,0,0.466,795.2,77.3,17
58590,469262043,115.0,122.0,-56.0,0,0.472,795.2,77.3,17
58591,469270046,112.0,120.0,-59.0,0,0.477,795.2,77.3,17
58592,469278043,109.0,117.0,-62.0,0,0.482,795.2,77.3,17
58593,469286046,99.0,113.0,-65.0,0,0.488,795.2,77.3,17
58594,469294043,101.0,110.0,-67.0,0,0.477,795.2,77.3,17
58595,469302044,94.0,106.0,-70.0,0,0.497,795.2,77.3,17
58596,469310043,91.0,102.0,-73.0,0,0.502,795.2,77.3,17
58597,469318043,90.0,99.0,-76.0,0,0.508,795.2,77.3,17
58598,469326043,85.0,96.0,-79.0,0,0.513,795.2,77.3,17
58599,469334043,84.0,93.0,-82.0,0,0.519,795.2,77.3,17
58600,469342044,79.0,90.0,-85.0,0,0.524,795.2,77.3,17
58601,469350046,76.0,86.0,-87.0,0,0.513,795.2,77.3,17
58602,469358043,77.0,84.0,-90.0,0,0.533,795.2,77.3,17
58603,469366046,69.0,80.0,-92.0,0,0.522,795.2,77.3,17
58604,469374044,69.0,78.0,-95.0,0,0.541,795.2,77.3,17
58605,469382043,70.0,76.0,-97.0,0,0.53,795.2,77.3,17
58606,469390043,68.0,74.0,-99.0,0,0.533,795.2,77.3,17
58607,469398046,68.0,72.0,-100.0,0,0.52,795.2,77.3,17
58608,469406043,60.0,69.0,-102.0,0,0.538,795.2,77.3,17
58609,469414044,69.0,69.0,-103.0,0,0.525,795.2,77.3,17
58610,469422043,69.0,69.0,-104.0,0,0.526,795.2,77.3,17
58611,469430045,63.0,68.0,-104.0,1,0.511,795.2,77.3,17
58612,469438043,69.0,68.0,-104.0,0,0.511,795.2,77.3,17
58613,469446046,68.0,68.0,-104.0,0,0.51,795.2,77.3,17
58614,469454043,71.0,69.0,-104.0,0,0.509,795.2,77.3,17
58615,469462046,72.0,70.0,-103.0,0,0.52,795.2,77.3,17
58616,469470043,74.0,71.0,-102.0,0,0.518,795.2,77.3,17
58617,469478046,79.0,73.0,-101.0,0,0.515,795.2,77.3,17
58618,469486043,76.0,73.0,-99.0,0,0.525,795.2,77.3,17
58619,469494047,83.0,76.0,-97.0,0,0.52,795.2,77.3,17
58620,469502043,83.0,78.0,-95.0,0,0.516,795.2,77.3,17
58621,469510043,82.0,79.0,-93.0,0,0.511,795.2,77.3,17
58622,469518045,88.0,81.0,-91.0,0,0.507,795.2,77.3,17
58623,469526046,87.0,82.0,-89.0,0,0.503,795.2,77.3,17
58624,469534045,87.0,83.0,-87.0,0,0.498,795.2,77.3,17
58625,469542046,91.0,85.0,-85.0,0,0.494,795.2,77.3,17
58626,469550044,89.0,86.0,-83.0,0,0.49,795.2,77.3,17
58627,469558045,92.0,88.0,-81.0,0,0.486,795.2,77.3,17
58628,469566043,96.0,90.0,-79.0,0,0.482,795.2,77.3,17
58629,469574043,101.0,92.0,-76.0,0,0.49,795.2,77.3,17
58630,469582043,112.0,97.0,-73.0,0,0.484,795.2,77.3,17
58631,469590046,124.0,104.0,-69.0,0,0.491,795.2,77.3,17
58632,469598043,144.0,113.0,-63.0,0,0.509,795.2,77.3,17
58633,469606043,163.0,125.0,-55.0,0,0.522,795.2,77.3,17
58634,469614044,187.0,140.0,-46.0,0,0.517,795.2,77.3,17
58635,469622043,214.0,158.0,-33.0,0,0.539,795.2,77.3,17
58636,469630044,238.0,178.0,-19.0,0,0.522,795.2,77.3,17
58637,469638043,270.0,200.0,-3.0,0,0.527,795.2,77.3,17
58638,469646047,300.0,224.0,16.0,0,0.583,795.2,77.3,17
58639,469654045,324.0,248.0,36.0,0,0.628,795.2,77.3,17
58640,469662043,353.0,274.0,57.0,0,0.676,795.2,77.3,17
58641,469670045,374.0,298.0,79.0,0,0.725,795.2,77.3,17
58642,469678045,392.0,321.0,101.0,0,0.767,795.2,77.3,17
58643,469686043,405.0,341.0,122.0,0,0.799,795.2,77.3,17
58644,469694047,415.0,359.0,142.0,0,0.823,795.2,77.3,17
58645,469702043,425.0,375.0,160.0,0,0.834,795.2,77.3,17
58646,469710047,427.0,388.0,176.0,0,0.835,795.2,77.3,17
58647,469718044,431.0,398.0,191.0,0,0.84,795.2,77.3,17
58648,469726047,428.0,405.0,202.0,0,0.806,795.2,77.3,17
58649,469734043,424.0,410.0,212.0,0,0.801,795.2,77.3,17
58650,469742043,418.0,412.0,218.0,0,0.751,795.2,77.3,17
58651,469750043,408.0,411.0,222.0,0,0.725,795.2,77.3,17
58652,469758047,402.0,409.0,224.0,0,0.698,795.2,77.3,17
58653,469766047,383.0,403.0,223.0,1,0.682,795.2,77.3,17
58654,469774043,370.0,395.0,220.0,0,0.704,795.2,77.3,17
58655,469782043,360.0,386.0,215.0,0,0.726,795.2,77.3,17
58656,469790043,346.0,376.0,208.0,0,0.745,795.2,77.3,17
58657,469798043,331.0,365.0,200.0,0,0.748,795.2,77.3,17
58658,469806045,313.0,353.0,190.0,0,0.761,795.2,77.3,17
58659,469814043,296.0,339.0,179.0,0,0.758,795.2,77.3,17
58660,469822044,273.0,323.0,166.0,0,0.761,795.2,77.3,17
58661,469830047,258.0,307.0,152.0,0,0.748,795.2,77.3,17
58662,469838043,236.0,290.0,137.0,0,0.731,795.2,77.3,17
58663,469846047,218.0,273.0,121.0,0,0.71,795.2,77.3,17
58664,469854047,206.0,256.0,105.0,0,0.678,795.2,77.3,17
58665,469862043,194.0,241.0,89.0,0,0.645,795.2,77.3,17
58666,469870043,181.0,227.0,73.0,0,0.611,795.2,77.3,17
58667,469878043,176.0,214.0,58.0,0,0.571,795.2,77.3,17
58668,469886043,158.0,201.0,44.0,0,0.534,795.2,77.3,17
58669,469894043,155.0,190.0,31.0,0,0.499,795.2,77.3,17
58670,469902043,148.0,180.0,18.0,0,0.475,795.2,77.3,17
58671,469910045,140.0,170.0,7.0,0,0.464,795.2,77.3,17
58672,469918044,137.0,162.0,-4.0,0,0.484,795.2,77.3,17
58673,469926043,130.0,154.0,-14.0,0,0.492,795.2,77.3,17
58674,469934043,126.0,147.0,-22.0,0,0.482,795.2,77.3,17
58675,469942044,121.0,141.0,-30.0,0,0.498,795.2,77.3,17
58676,469950043,117.0,135.0,-38.0,0,0.514,795.2,77.3,17
58677,469958044,115.0,130.0,-44.0,0,0.5,795.2,77.3,17
58678,469966043,111.0,126.0,-50.0,0,0.512,795.2,77.3,17
58679,469974044,109.0,122.0,-55.0,0,0.508,795.2,77.3,17
58680,469982044,107.0,118.0,-60.0,0,0.518,795.2,77.3,17
58681,469990046,101.0,114.0,-64.0,0,0.512,795.2,77.3,17
58682,469998045,101.0,111.0,-68.0,0,0.519,795.2,77.3,17
58683,470006045,94.0,107.0,-72.0,0,0.526,795.2,77.3,17
58684,470014043,89.0,102.0,-75.0,0,0.518,795.2,77.3,17
58685,470022043,89.0,99.0,-79.0,0,0.538,795.2,77.3,17
58686,470030044,83.0,95.0,-82.0,0,0.529,795.2,77.3,17
58687,470038047,80.0,92.0,-85.0,0,0.534,795.2,77.3,17
58688,470046045,76.0,88.0,-89.0,0,0.555,795.2,77.3,17
58689,470054046,69.0,83.0,-92.0,0,0.546,795.2,77.3,17
58690,470062043,66.0,79.0,-96.0,0,0.566,795.2,77.3,17
58691,470070043,60.0,74.0,-99.0,0,0.557,795.2,77.3,17
58692,470078044,63.0,72.0,-102.0,0,0.562,795.2,77.3,17
58693,470086043,60.0,69.0,-105.0,0,0.566,795.2,77.3,17
58694,470094043,60.0,67.0,-108.0,0,0.571,795.2,77.3,17
58695,470102046,55.0,64.0,-110.0,0,0.56,795.2,77.3,17
58696,470110043,54.0,61.0,-112.0,0,0.562,795.2,77.3,17
58697,470118044,52.0,59.0,-114.0,0,0.565,795.2,77.3,17
58698,470126043,59.0,59.0,-115.0,0,0.553,795.2,77.3,17
58699,470134045,51.0,57.0,-116.0,0,0.553,795.2,77.3,17
58700,470142043,52.0,56.0,-117.0,0,0.554,795.2,77.3,17
58701,470150043,52.0,55.0,-118.0,0,0.554,795.2,77.3,17
58702,470158043,53.0,54.0,-118.0,1,0.54,795.2,77.3,17
58703,470166043,54.0,54.0,-119.0,0,0.553,795.2,77.3,17
58704,470174043,55.0,55.0,-118.0,1,0.55,795.2,77.3,17
58705,470182043,57.0,55.0,-118.0,1,0.536,795.2,77.3,17
58706,470190043,60.0,56.0,-117.0,0,0.546,795.2,77.3,17
58707,470198043,64.0,58.0,-115.0,0,0.555,795.2,77.3,17
58708,470206043,62.0,59.0,-114.0,0,0.538,795.2,77.3,17
58709,470214046,65.0,61.0,-112.0,0,0.547,795.2,77.3,17
58710,470222043,68.0,62.0,-110.0,0,0.542,795.2,77.3,17
58711,470230045,71.0,64.0,-108.0,0,0.538,795.2,77.3,17
58712,470238043,78.0,68.0,-106.0,0,0.533,795.2,77.3,17
58713,470246045,76.0,70.0,-103.0,0,0.541,795.2,77.3,17
58714,470254043,80.0,72.0,-100.0,0,0.534,795.2,77.3,17
58715,470262046,84.0,75.0,-97.0,0,0.528,795.2,77.3,17
58716,470270043,81.0,77.0,-94.0,0,0.521,795.2,77.3,17
58717,470278045,87.0,79.0,-92.0,0,0.503,795.2,77.3,17
58718,470286044,84.0,80.0,-89.0,0,0.51,795.2,77.3,17
58719,470294047,88.0,82.0,-87.0,0,0.492,795.2,77.3,17
58720,470302047,92.0,85.0,-84.0,0,0.499,795.2,77.3,17
58721,470310045,97.0,88.0,-81.0,0,0.493,795.2,77.3,17
58722,470318044,103.0,91.0,-78.0,0,0.487,795.2,77.3,17
58723,470326046,108.0,95.0,-74.0,0,0.493,795.2,77.3,17
58724,470334043,120.0,101.0,-70.0,0,0.484,795.2,77.3,17
58725,470342047,137.0,110.0,-64.0,0,0.501,795.2,77.3,17
58726,470350043,153.0,120.0,-57.0,0,0.501,795.2,77.3,17
58727,470358045,180.0,135.0,-48.0,0,0.51,795.2,77.3,17
58728,470366043,204.0,152.0,-36.0,0,0.524,795.2,77.3,17
58729,470374044,236.0,172.0,-22.0,0,0.518,795.2,77.3,17
58730,470382046,267.0,195.0,-6.0,0,0.516,795.2,77.3,17
58731,470390045,292.0,219.0,12.0,0,0.562,795.2,77.3,17
58732,470398043,319.0,243.0,32.0,0,0.612,795.2,77.3,17
58733,470406043,340.0,266.0,53.0,0,0.658,795.2,77.3,17
58734,470414043,365.0,290.0,75.0,0,0.706,795.2,77.3,17
58735,470422043,383.0,313.0,96.0,0,0.74,795.2,77.3,17
58736,470430043,398.0,333.0,117.0,0,0.776,795.2,77.3,17
58737,470438044,416.0,353.0,137.0,0,0.801,795.2,77.3,17
58738,470446043,421.0,370.0,156.0,0,0.82,795.2,77.3,17
58739,470454046,425.0,383.0,173.0,0,0.825,795.2,77.3,17
58740,470462046,430.0,395.0,188.0,0,0.822,795.2,77.3,17
58741,470470043,435.0,404.0,201.0,0,0.813,795.2,77.3,17
58742,470478043,428.0,410.0,211.0,0,0.786,795.2,77.3,17
58743,470486043,420.0,412.0,219.0,0,0.766,795.2,77.3,17
58744,470494043,409.0,412.0,223.0,0,0.715,795.2,77.3,17
58745,470502045,403.0,410.0,226.0,0,0.703,795.2,77.3,17
58746,470510043,392.0,405.0,226.0,1,0.664,795.2,77.3,17
58747,470518046,378.0,399.0,224.0,0,0.685,795.2,77.3,17
58748,470526043,362.0,390.0,219.0,0,0.718,795.2,77.3,17
58749,470534043,346.0,379.0,212.0,0,0.736,795.2,77.3,17
58750,470542043,332.0,368.0,204.0,0,0.739,795.2,77.3,17
58751,470550043,315.0,355.0,194.0,0,0.751,795.2,77.3,17
58752,470558043,300.0,342.0,183.0,0,0.748,795.2,77.3,17
58753,470566043,283.0,327.0,171.0,0,0.742,795.2,77.3,17
58754,470574043,260.0,311.0,157.0,0,0.741,795.2,77.3,17
58755,470582043,248.0,296.0,142.0,0,0.725,795.2,77.3,17
58756,470590043,230.0,280.0,127.0,0,0.698,795.2,77.3,17
58757,470598047,210.0,263.0,112.0,0,0.67,795.2,77.3,17
58758,470606043,196.0,247.0,96.0,0,0.648,795.2,77.3,17
58759,470614043,184.0,231.0,80.0,0,0.616,795.2,77.3,17
58760,470622043,172.0,217.0,65.0,0,0.577,795.2,77.3,17
58761,470630046,156.0,202.0,49.0,0,0.555,795.2,77.3,17
58762,470638043,151.0,190.0,35.0,0,0.511,795.2,77.3,17
58763,470646044,142.0,178.0,21.0,0,0.486,795.2,77.3,17
58764,470654043,139.0,169.0,9.0,0,0.464,795.2,77.3,17
58765,470662045,127.0,159.0,-3.0,0,0.484,795.2,77.3,17
58766,470670044,125.0,150.0,-13.0,0,0.479,795.2,77.3,17
58767,470678043,119.0,143.0,-23.0,0,0.497,795.2,77.3,17
58768,470686043,113.0,136.0,-32.0,0,0.502,795.2,77.3,17
58769,470694043,112.0,130.0,-40.0,0,0.505,795.2,77.3,17
58770,470702043,111.0,125.0,-47.0,0,0.506,795.2,77.3,17
58771,470710047,106.0,121.0,-53.0,0,0.505,795.2,77.3,17
58772,470718043,105.0,117.0,-58.0,0,0.502,795.2,77.3,17
58773,470726046,101.0,113.0,-63.0,0,0.511,795.2,77.3,17
58774,470734043,98.0,109.0,-67.0,0,0.506,795.2,77.3,17
58775,470742043,99.0,107.0,-71.0,0,0.513,795.2,77.3,17
58776,470750043,95.0,104.0,-74.0,0,0.506,795.2,77.3,17
58777,470758047,92.0,101.0,-77.0,0,0.511,795.2,77.3,17
58778,470766043,88.0,98.0,-80.0,0,0.515,795.2,77.3,17
58779,470774043,84.0,95.0,-83.0,0,0.52,795.2,77.3,17
58780,470782043,81.0,91.0,-85.0,0,0.511,795.2,77.3,17
58781,470790043,75.0,87.0,-88.0,0,0.527,795.2,77.3,17
58782,470798043,73.0,84.0,-91.0,0,0.532,795.2,77.3,17
58783,470806046,61.0,78.0,-95.0,0,0.551,795.2,77.3,17
58784,470814045,60.0,74.0,-98.0,0,0.543,795.2,77.3,17
58785,470822046,57.0,70.0,-102.0,0,0.562,795.2,77.3,17
58786,470830043,56.0,66.0,-105.0,0,0.553,795.2,77.3,17
58787,470838046,55.0,64.0,-108.0,0,0.557,795.2,77.3,17
58788,470846043,48.0,60.0,-111.0,0,0.561,795.2,77.3,17
58789,470854046,52.0,58.0,-113.0,0,0.551,795.2,77.3,17
58790,470862043,50.0,56.0,-115.0,0,0.554,795.2,77.3,17
58791,470870045,46.0,54.0,-117.0,0,0.556,795.2,77.3,17
58792,470878043,50.0,53.0,-118.0,0,0.545,795.2,77.3,17
58793,470886046,52.0,53.0,-119.0,0,0.545,795.2,77.3,17
58794,470894043,46.0,51.0,-120.0,0,0.546,795.2,77.3,17
58795,470902044,49.0,50.0,-121.0,0,0.547,795.2,77.3,17
58796,470910043,49.0,50.0,-121.0,1,0.534,795.2,77.3,17
58797,470918043,52.0,51.0,-121.0,0,0.533,795.2,77.3,17
58798,470926043,51.0,51.0,-120.0,0,0.542,795.2,77.3,17
58799,470934046,54.0,51.0,-119.0,0,0.539,795.2,77.3,17
58800,470942043,60.0,54.0,-118.0,0,0.536,795.2,77.3,17
58801,470950045,57.0,54.0,-117.0,0,0.533,795.2,77.3,17
58802,470958043,60.0,56.0,-115.0,0,0.541,795.2,77.3,17
58803,470966045,60.0,57.0,-113.0,0,0.536,795.2,77.3,17
58804,470974043,68.0,59.0,-111.0,0,0.531,795.2,77.3,17
58805,470982047,69.0,62.0,-109.0,0,0.526,795.2,77.3,17
58806,470990043,72.0,64.0,-106.0,0,0.533,795.2,77.3,17
58807,470998043,75.0,67.0,-103.0,0,0.526,795.2,77.3,17
58808,471006043,77.0,69.0,-101.0,0,0.508,795.2,77.3,17
58809,471014044,78.0,71.0,-98.0,0,0.515,795.2,77.3,17
58810,471022044,82.0,74.0,-95.0,0,0.508,795.2,77.3,17
58811,471030044,83.0,76.0,-92.0,0,0.502,795.2,77.3,17
58812,471038046,87.0,79.0,-89.0,0,0.495,795.2,77.3,17
58813,471046047,89.0,81.0,-86.0,0,0.489,795.2,77.3,17
58814,471054044,92.0,84.0,-83.0,0,0.482,795.2,77.3,17
58815,471062043,92.0,86.0,-80.0,0,0.476,795.2,77.3,17
58816,471070045,96.0,88.0,-77.0,0,0.47,795.2,77.3,17
58817,471078043,97.0,90.0,-75.0,0,0.452,795.2,77.3,17
58818,471086043,97.0,92.0,-72.0,0,0.459,795.2,77.3,17
58819,471094043,101.0,94.0,-69.0,0,0.453,795.2,77.3,17
58820,471102044,103.0,96.0,-67.0,0,0.436,795.2,77.3,17
58821,471110046,108.0,99.0,-64.0,0,0.443,795.2,77.3,17
58822,471118043,111.0,102.0,-61.0,0,0.437,795.2,77.3,17
58823,471126044,117.0,106.0,-58.0,0,0.431,795.2,77.3,17
58824,471134043,133.0,112.0,-54.0,0,0.437,795.2,77.3,17
58825,471142043,149.0,121.0,-48.0,0,0.453,795.2,77.3,17
58826,471150043,166.0,132.0,-41.0,0,0.454,795.2,77.3,17
58827,471158043,189.0,146.0,-32.0,0,0.464,795.2,77.3,17
58828,471166043,215.0,163.0,-21.0,0,0.469,795.2,77.3,17
58829,471174043,244.0,182.0,-7.0,0,0.498,795.2,77.3,17
58830,471182043,277.0,205.0,9.0,0,0.543,795.2,77.3,17
58831,471190043,305.0,229.0,28.0,0,0.6,795.2,77.3,17
58832,471198046,335.0,255.0,48.0,0,0.643,795.2,77.3,17
58833,471206043,357.0,280.0,69.0,0,0.688,795.2,77.3,17
58834,471214047,381.0,304.0,91.0,0,0.733,795.2,77.3,17
58835,471222043,402.0,328.0,113.0,0,0.77,795.2,77.3,17
58836,471230046,416.0,349.0,135.0,0,0.803,795.2,77.3,17
58837,471238043,430.0,369.0,155.0,0,0.818,795.2,77.3,17
58838,471246047,439.0,386.0,174.0,0,0.832,795.2,77.3,17
58839,471254043,444.0,400.0,192.0,0,0.842,795.2,77.3,17
58840,471262043,445.0,411.0,207.0,0,0.829,795.2,77.3,17
58841,471270043,445.0,419.0,219.0,0,0.807,795.2,77.3,17
58842,471278043,443.0,425.0,229.0,0,0.79,795.2,77.3,17
58843,471286043,432.0,427.0,237.0,0,0.769,795.2,77.3,17
58844,471294043,424.0,426.0,241.0,0,0.72,795.2,77.3,17
58845,471302043,416.0,424.0,243.0,0,0.695,795.2,77.3,17
58846,471310043,403.0,419.0,243.0,1,0.67,795.2,77.3,17
58847,471318043,389.0,411.0,240.0,0,0.702,795.2,77.3,17
58848,471326046,372.0,402.0,235.0,0,0.721,795.2,77.3,17
58849,471334044,358.0,391.0,228.0,0,0.739,795.2,77.3,17
58850,471342043,342.0,379.0,219.0,0,0.754,795.2,77.3,17
58851,471350045,324.0,366.0,208.0,0,0.765,795.2,77.3,17
58852,471358043,305.0,351.0,196.0,0,0.761,795.2,77.3,17
58853,471366044,285.0,335.0,183.0,0,0.755,795.2,77.3,17
58854,471374043,265.0,318.0,168.0,0,0.753,795.2,77.3,17
58855,471382044,242.0,300.0,152.0,0,0.737,795.2,77.3,17
58856,471390043,220.0,280.0,135.0,0,0.717,795.2,77.3,17
58857,471398043,206.0,262.0,117.0,0,0.692,795.2,77.3,17
58858,471406044,195.0,246.0,100.0,0,0.653,795.2,77.3,17
58859,471414044,180.0,230.0,83.0,0,0.622,795.2,77.3,17
58860,471422043,170.0,215.0,67.0,0,0.583,795.2,77.3,17
58861,471430045,156.0,201.0,51.0,0,0.554,795.2,77.3,17
58862,471438043,151.0,189.0,36.0,0,0.519,795.2,77.3,17
58863,471446045,143.0,178.0,23.0,0,0.478,795.2,77.3,17
58864,471454043,137.0,168.0,10.0,0,0.463,795.2,77.3,17
58865,471462046,134.0,160.0,-1.0,0,0.459,795.2,77.3,17
58866,471470043,124.0,151.0,-12.0,0,0.477,795.2,77.3,17
58867,471478045,124.0,144.0,-21.0,0,0.469,795.2,77.3,17
58868,471486043,119.0,138.0,-29.0,0,0.472,795.2,77.3,17
58869,471494044,121.0,134.0,-36.0,0,0.472,795.2,77.3,17
58870,471502043,116.0,130.0,-42.0,0,0.47,795.2,77.3,17
58871,471510044,116.0,126.0,-48.0,0,0.481,795.2,77.3,17
58872,471518045,113.0,123.0,-52.0,0,0.463,795.2,77.3,17
58873,471526047,108.0,119.0,-56.0,0,0.47,795.2,77.3,17
58874,471534043,106.0,116.0,-60.0,0,0.476,795.2,77.3,17
58875,471542044,100.0,112.0,-64.0,0,0.483,795.2,77.3,17
58876,471550043,100.0,109.0,-67.0,0,0.475,795.2,77.3,17
58877,471558045,94.0,106.0,-70.0,0,0.479,795.2,77.3,17
58878,471566043,95.0,103.0,-73.0,0,0.484,795.2,77.3,17
58879,471574045,92.0,100.0,-76.0,0,0.488,795.2,77.3,17
58880,471582043,86.0,97.0,-79.0,0,0.493,795.2,77.3,17
58881,471590043,86.0,94.0,-81.0,0,0.483,795.2,77.3,17
58882,471598043,85.0,92.0,-84.0,0,0.5,795.2,77.3,17
58883,471606045,80.0,89.0,-86.0,0,0.49,795.2,77.3,17
58884,471614043,76.0,86.0,-88.0,0,0.493,795.2,77.3,17
58885,471622047,76.0,84.0,-91.0,0,0.509,795.2,77.3,17
58886,471630043,71.0,80.0,-93.0,0,0.5,795.2,77.3,17
58887,471638045,69.0,78.0,-95.0,0,0.502,795.2,77.3,17
58888,471646043,66.0,75.0,-97.0,0,0.505,795.2,77.3,17
58889,471654046,67.0,73.0,-99.0,0,0.508,795.2,77.3,17
58890,471662043,63.0,71.0,-101.0,0,0.51,795.2,77.3,17
58891,471670047,66.0,69.0,-102.0,0,0.499,795.2,77.3,17
58892,471678044,67.0,69.0,-103.0,0,0.5,795.2,77.3,17
58893,471686043,59.0,66.0,-105.0,0,0.514,795.2,77.3,17
58894,471694043,63.0,66.0,-105.0,1,0.49,795.2,77.3,17
58895,471702045,66.0,66.0,-106.0,0,0.502,795.2,77.3,17
58896,471710043,67.0,66.0,-106.0,1,0.489,795.2,77.3,17
58897,471718045,69.0,67.0,-105.0,0,0.498,795.2,77.3,17
58898,471726043,70.0,68.0,-105.0,1,0.486,795.2,77.3,17
58899,471734043,68.0,68.0,-104.0,0,0.495,795.2,77.3,17
58900,471742043,72.0,69.0,-103.0,0,0.492,795.2,77.3,17
58901,471750044,72.0,70.0,-102.0,0,0.49,795.2,77.3,17
58902,471758043,78.0,72.0,-100.0,0,0.497,795.2,77.3,17
58903,471766044,76.0,73.0,-99.0,0,0.483,795.2,77.3,17
58904,471774045,76.0,73.0,-97.0,0,0.491,795.2,77.3,17
58905,471782047,85.0,76.0,-95.0,0,0.487,795.2,77.3,17
58906,471790045,88.0,79.0,-92.0,0,0.493,795.2,77.3,17
58907,471798047,91.0,82.0,-90.0,0,0.477,795.2,77.3,17
58908,471806045,94.0,85.0,-87.0,0,0.483,795.2,77.3,17
58909,471814043,98.0,88.0,-84.0,0,0.478,795.2,77.3,17
58910,471822043,99.0,91.0,-80.0,0,0.483,795.2,77.3,17
58911,471830043,100.0,93.0,-77.0,0,0.464,795.2,77.3,17
58912,471838044,100.0,95.0,-75.0,0,0.448,795.2,77.3,17
58913,471846045,99.0,96.0,-72.0,0,0.455,795.2,77.3,17
58914,471854044,104.0,98.0,-70.0,0,0.438,795.2,77.3,17
58915,471862044,103.0,99.0,-68.0,0,0.435,795.2,77.3,17
58916,471870043,104.0,100.0,-66.0,0,0.431,795.2,77.3,17
58917,471878043,106.0,102.0,-64.0,0,0.428,795.2,77.3,17
58918,471886043,104.0,102.0,-62.0,0,0.424,795.2,77.3,17
58919,471894043,102.0,102.0,-61.0,0,0.41,795.2,77.3,17
58920,471902043,109.0,104.0,-59.0,0,0.419,795.2,77.3,17
58921,471910043,116.0,107.0,-57.0,0,0.415,795.2,77.3,17
58922,471918043,127.0,112.0,-54.0,0,0.423,795.2,77.3,17
58923,471926046,139.0,118.0,-50.0,0,0.429,795.2,77.3,17
58924,471934043,156.0,127.0,-45.0,0,0.433,795.2,77.3,17
58925,471942043,180.0,140.0,-37.0,0,0.458,795.2,77.3,17
58926,471950043,200.0,155.0,-27.0,0,0.466,795.2,77.3,17
58927,471958043,231.0,173.0,-15.0,0,0.47,795.2,77.3,17
58928,471966043,261.0,194.0,0.0,0,0.506,795.2,77.3,17
58929,471974047,280.0,215.0,16.0,0,0.541,795.2,77.3,17
58930,471982043,312.0,239.0,34.0,0,0.587,795.2,77.3,17
58931,471990043,332.0,261.0,53.0,0,0.627,795.2,77.3,17
58932,471998044,357.0,284.0,73.0,0,0.669,795.2,77.3,17
58933,472006045,376.0,307.0,94.0,0,0.712,795.2,77.3,17
58934,472014046,392.0,327.0,114.0,0,0.739,795.2,77.3,17
58935,472022043,405.0,346.0,134.0,0,0.769,795.2,77.3,17
58936,472030047,412.0,362.0,152.0,0,0.779,795.2,77.3,17
58937,472038043,424.0,377.0,168.0,0,0.783,795.2,77.3,17
58938,472046047,426.0,389.0,183.0,0,0.79,795.2,77.3,17
58939,472054045,422.0,397.0,196.0,0,0.782,795.2,77.3,17
58940,472062046,419.0,402.0,206.0,0,0.758,795.2,77.3,17
58941,472070043,415.0,405.0,214.0,0,0.74,795.2,77.3,17
58942,472078044,404.0,405.0,219.0,0,0.706,795.2,77.3,17
58943,472086043,394.0,402.0,221.0,0,0.67,795.2,77.3,17
58944,472094045,382.0,397.0,221.0,1,0.646,795.2,77.3,17
58945,472102043,370.0,391.0,218.0,0,0.675,795.2,77.3,17
58946,472110043,355.0,382.0,214.0,0,0.682,795.2,77.3,17
58947,472118044,340.0,372.0,207.0,0,0.71,795.2,77.3,17
58948,472126043,318.0,359.0,198.0,0,0.722,795.2,77.3,17
58949,472134043,304.0,346.0,188.0,0,0.721,795.2,77.3,17
58950,472142043,290.0,332.0,176.0,0,0.726,795.2,77.3,17
58951,472150043,268.0,317.0,163.0,0,0.717,795.2,77.3,17
58952,472158043,252.0,301.0,150.0,0,0.696,795.2,77.3,17
58953,472166043,232.0,284.0,135.0,0,0.691,795.2,77.3,17
58954,472174043,213.0,267.0,119.0,0,0.672,795.2,77.3,17
58955,472182043,200.0,251.0,103.0,0,0.643,795.2,77.3,17
58956,472190043,182.0,234.0,87.0,0,0.614,795.2,77.3,17
58957,472198045,172.0,219.0,71.0,0,0.585,795.2,77.3,17
58958,472206043,162.0,205.0,55.0,0,0.557,795.2,77.3,17
58959,472214044,146.0,191.0,40.0,0,0.523,795.2,77.3,17
58960,472222043,141.0,179.0,26.0,0,0.492,795.2,77.3,17
58961,472230043,133.0,168.0,13.0,0,0.463,795.2,77.3,17
58962,472238043,126.0,158.0,0.0,0,0.48,795.2,77.3,17
58963,472246046,124.0,149.0,-11.0,0,0.476,795.2,77.3,17
58964,472254043,122.0,143.0,-20.0,0,0.468,795.2,77.3,17
58965,472262043,120.0,137.0,-29.0,0,0.483,795.2,77.3,17
58966,472270043,120.0,133.0,-36.0,0,0.47,795.2,77.3,17
58967,472278044,116.0,129.0,-42.0,0,0.467,795.2,77.3,17
58968,472286043,110.0,124.0,-48.0,0,0.477,795.2,77.3,17
58969,472294046,109.0,121.0,-53.0,0,0.473,795.2,77.3,17
58970,472302043,108.0,118.0,-57.0,0,0.466,795.2,77.3,17
58971,472310046,104.0,114.0,-61.0,0,0.473,795.2,77.3,17
58972,472318043,106.0,112.0,-64.0,0,0.465,795.2,77.3,17
58973,472326043,100.0,109.0,-67.0,0,0.469,795.2,77.3,17
58974,472334046,96.0,106.0,-70.0,0,0.474,795.2,77.3,17
58975,472342043,97.0,104.0,-72.0,0,0.464,795.2,77.3,17
58976,472350043,92.0,101.0,-75.0,0,0.481,795.2,77.3,17
58977,472358047,89.0,98.0,-77.0,0,0.472,795.2,77.3,17
58978,472366044,86.0,95.0,-80.0,0,0.488,795.2,77.3,17
58979,472374046,82.0,92.0,-82.0,0,0.479,795.2,77.3,17
58980,472382044,78.0,89.0,-85.0,0,0.495,795.2,77.3,17
58981,472390045,76.0,86.0,-87.0,0,0.486,795.2,77.3,17
58982,472398043,71.0,82.0,-90.0,0,0.503,795.2,77.3,17
58983,472406047,74.0,80.0,-92.0,0,0.493,795.2,77.3,17
58984,472414047,68.0,77.0,-94.0,0,0.496,795.2,77.3,17
58985,472422043,69.0,75.0,-96.0,0,0.499,795.2,77.3,17
58986,472430043,66.0,73.0,-98.0,0,0.502,795.2,77.3,17
58987,472438046,68.0,72.0,-100.0,0,0.504,795.2,77.3,17
58988,472446043,66.0,70.0,-101.0,0,0.493,795.2,77.3,17
58989,472454043,64.0,69.0,-102.0,0,0.494,795.2,77.3,17
58990,472462046,64.0,68.0,-103.0,0,0.495,795.2,77.3,17
58991,472470045,62.0,66.0,-104.0,0,0.496,795.2,77.3,17
58992,472478043,66.0,66.0,-104.0,1,0.483,795.2,77.3,17
58993,472486043,64.0,66.0,-105.0,0,0.496,795.2,77.3,17
58994,472494043,65.0,66.0,-105.0,1,0.484,795.2,77.3,17
58995,472502043,68.0,66.0,-104.0,0,0.493,795.2,77.3,17
58996,472510043,69.0,67.0,-104.0,1,0.481,795.2,77.3,17
58997,472518043,74.0,69.0,-102.0,0,0.501,795.2,77.3,17
58998,472526044,76.0,70.0,-101.0,0,0.486,795.2,77.3,17
58999,472534044,76.0,72.0,-99.0,0,0.494,795.2,77.3,17
59000,472542043,80.0,74.0,-97.0,0,0.49,795.2,77.3,17
59001,472550047,80.0,75.0,-95.0,0,0.486,795.2,77.3,17
59002,472558043,87.0,78.0,-93.0,0,0.482,795.2,77.3,17
59003,472566045,88.0,81.0,-90.0,0,0.489,795.2,77.3,17
59004,472574043,89.0,83.0,-88.0,0,0.473,795.2,77.3,17
59005,472582046,92.0,85.0,-85.0,0,0.48,795.2,77.3,17
59006,472590044,92.0,87.0,-83.0,0,0.463,795.2,77.3,17
59007,472598045,95.0,89.0,-80.0,0,0.471,795.2,77.3,17
59008,472606045,94.0,90.0,-78.0,0,0.454,795.2,77.3,17
59009,472614046,96.0,91.0,-76.0,0,0.451,795.2,77.3,17
59010,472622045,100.0,93.0,-73.0,0,0.458,795.2,77.3,17
59011,472630043,104.0,96.0,-71.0,0,0.442,795.2,77.3,17
59012,472638043,102.0,97.0,-69.0,0,0.438,795.2,77.3,17
59013,472646046,105.0,99.0,-66.0,0,0.446,795.2,77.3,17
59014,472654045,108.0,101.0,-64.0,0,0.429,795.2,77.3,17
59015,472662046,112.0,104.0,-61.0,0,0.437,795.2,77.3,17
59016,472670043,116.0,107.0,-59.0,0,0.421,795.2,77.3,17
59017,472678044,134.0,113.0,-55.0,0,0.44,795.2,77.3,17
59018,472686043,145.0,121.0,-50.0,0,0.444,795.2,77.3,17
59019,472694044,164.0,132.0,-43.0,0,0.459,795.2,77.3,17
59020,472702043,188.0,145.0,-34.0,0,0.469,795.2,77.3,17
59021,472710045,214.0,162.0,-23.0,0,0.474,795.2,77.3,17
59022,472718043,240.0,181.0,-10.0,0,0.475,795.2,77.3,17
59023,472726043,269.0,202.0,5.0,0,0.514,795.2,77.3,17
59024,472734044,296.0,225.0,23.0,0,0.568,795.2,77.3,17
59025,472742044,329.0,250.0,42.0,0,0.609,795.2,77.3,17
59026,472750043,351.0,275.0,63.0,0,0.659,795.2,77.3,17
59027,472758044,373.0,298.0,84.0,0,0.696,795.2,77.3,17
59028,472766043,398.0,323.0,106.0,0,0.739,795.2,77.3,17
59029,472774043,414.0,345.0,127.0,0,0.767,795.2,77.3,17
59030,472782043,426.0,364.0,148.0,0,0.797,795.2,77.3,17
59031,472790043,437.0,382.0,167.0,0,0.808,795.2,77.3,17
59032,472798043,444.0,397.0,185.0,0,0.82,795.2,77.3,17
59033,472806043,447.0,409.0,201.0,0,0.819,795.2,77.3,17
59034,472814043,447.0,418.0,214.0,0,0.801,795.2,77.3,17
59035,472822043,444.0,425.0,225.0,0,0.786,795.2,77.3,17
59036,472830043,438.0,428.0,233.0,0,0.756,795.2,77.3,17
59037,472838043,432.0,429.0,239.0,0,0.734,795.2,77.3,17
59038,472846043,423.0,427.0,242.0,0,0.698,795.2,77.3,17
59039,472854043,409.0,423.0,242.0,1,0.662,795.2,77.3,17
59040,472862043,396.0,416.0,240.0,0,0.682,795.2,77.3,17
59041,472870043,383.0,408.0,236.0,0,0.7,795.2,77.3,17
59042,472878043,364.0,398.0,230.0,0,0.718,795.2,77.3,17
59043,472886043,352.0,387.0,222.0,0,0.733,795.2,77.3,17
59044,472894043,331.0,373.0,212.0,0,0.745,795.2,77.3,17
59045,472902043,315.0,359.0,200.0,0,0.753,795.2,77.3,17
59046,472910043,295.0,343.0,187.0,0,0.746,795.2,77.3,17
59047,472918043,277.0,327.0,173.0,0,0.736,795.2,77.3,17
59048,472926043,255.0,310.0,158.0,0,0.722,795.2,77.3,17
59049,472934043,237.0,292.0,142.0,0,0.705,795.2,77.3,17
59050,472942043,217.0,274.0,125.0,0,0.684,795.2,77.3,17
59051,472950043,204.0,257.0,108.0,0,0.655,795.2,77.3,17
59052,472958043,188.0,240.0,91.0,0,0.624,795.2,77.3,17
59053,472966044,179.0,225.0,74.0,0,0.595,795.2,77.3,17
59054,472974043,166.0,211.0,58.0,0,0.559,795.2,77.3,17
59055,472982044,156.0,198.0,43.0,0,0.526,795.2,77.3,17
59056,472990043,148.0,186.0,29.0,0,0.495,795.2,77.3,17
59057,472998045,143.0,175.0,16.0,0,0.466,795.2,77.3,17
59058,473006043,127.0,164.0,3.0,0,0.48,795.2,77.3,17
59059,473014043,126.0,154.0,-9.0,0,0.488,795.2,77.3,17
59060,473022043,124.0,147.0,-19.0,0,0.481,795.2,77.3,17
59061,473030043,113.0,139.0,-28.0,0,0.484,795.2,77.3,17
59062,473038043,111.0,132.0,-37.0,0,0.499,795.2,77.3,17
59063,473046045,108.0,126.0,-45.0,0,0.5,795.2,77.3,17
59064,473054043,99.0,120.0,-52.0,0,0.499,795.2,77.3,17
59065,473062045,99.0,115.0,-59.0,0,0.511,795.2,77.3,17
59066,473070043,93.0,109.0,-65.0,0,0.508,795.2,77.3,17
59067,473078046,92.0,105.0,-70.0,0,0.504,795.2,77.3,17
59068,473086043,89.0,101.0,-75.0,0,0.512,795.2,77.3,17
59069,473094043,84.0,97.0,-79.0,0,0.505,795.2,77.3,17
59070,473102047,83.0,94.0,-83.0,0,0.512,795.2,77.3,17
59071,473110046,81.0,91.0,-87.0,0,0.518,795.2,77.3,17
59072,473118043,81.0,88.0,-90.0,0,0.51,795.2,77.3,17
59073,473126046,78.0,86.0,-92.0,0,0.501,795.2,77.3,17
59074,473134046,76.0,83.0,-95.0,0,0.517,795.2,77.3,17
59075,473142046,75.0,81.0,-97.0,0,0.508,795.2,77.3,17
59076,473150044,74.0,80.0,-99.0,0,0.511,795.2,77.3,17
59077,473158047,72.0,78.0,-100.0,0,0.5,795.2,77.3,17
59078,473166043,67.0,75.0,-102.0,0,0.514,795.2,77.3,17
59079,473174046,67.0,73.0,-103.0,0,0.503,795.2,77.3,17
59080,473182043,64.0,71.0,-105.0,0,0.517,795.2,77.3,17
59081,473190043,60.0,68.0,-107.0,0,0.52,795.2,77.3,17
59082,473198043,60.0,66.0,-108.0,0,0.509,795.2,77.3,17
59083,473206046,60.0,65.0,-110.0,0,0.523,795.2,77.3,17
59084,473214043,56.0,63.0,-111.0,0,0.512,795.2,77.3,17
59085,473222044,54.0,61.0,-112.0,0,0.513,795.2,77.3,17
59086,473230043,52.0,58.0,-114.0,0,0.528,795.2,77.3,17
59087,473238045,56.0,58.0,-114.0,1,0.503,795.2,77.3,17
59088,473246043,52.0,56.0,-115.0,0,0.516,795.2,77.3,17
59089,473254046,53.0,56.0,-116.0,0,0.517,795.2,77.3,17
59090,473262044,57.0,56.0,-116.0,1,0.504,795.2,77.3,17
59091,473270043,53.0,55.0,-116.0,0,0.504,795.2,77.3,17
59092,473278043,60.0,56.0,-116.0,0,0.503,795.2,77.3,17
59093,473286043,56.0,56.0,-115.0,0,0.513,795.2,77.3,17
59094,473294043,60.0,57.0,-114.0,0,0.511,795.2,77.3,17
59095,473302044,65.0,59.0,-113.0,0,0.508,795.2,77.3,17
59096,473310043,60.0,59.0,-112.0,0,0.506,795.2,77.3,17
59097,473318045,67.0,61.0,-110.0,0,0.515,795.2,77.3,17
59098,473326043,64.0,62.0,-108.0,0,0.511,795.2,77.3,17
59099,473334043,68.0,63.0,-107.0,0,0.497,795.2,77.3,17
59100,473342043,70.0,65.0,-105.0,0,0.505,795.2,77.3,17
59101,473350044,66.0,65.0,-103.0,0,0.501,795.2,77.3,17
59102,473358043,73.0,67.0,-101.0,0,0.498,795.2,77.3,17
59103,473366045,72.0,68.0,-99.0,0,0.494,795.2,77.3,17
59104,473374043,68.0,68.0,-98.0,0,0.48,795.2,77.3,17
59105,473382046,78.0,71.0,-96.0,0,0.489,795.2,77.3,17
59106,473390046,72.0,71.0,-94.0,0,0.485,795.2,77.3,17
59107,473398044,72.0,71.0,-93.0,0,0.471,795.2,77.3,17
59108,473406044,76.0,72.0,-91.0,0,0.48,795.2,77.3,17
59109,473414046,76.0,73.0,-90.0,0,0.466,795.2,77.3,17
59110,473422045,84.0,76.0,-88.0,0,0.475,795.2,77.3,17
59111,473430046,80.0,77.0,-86.0,0,0.471,795.2,77.3,17
59112,473438043,94.0,81.0,-83.0,0,0.479,795.2,77.3,17
59113,473446043,103.0,86.0,-80.0,0,0.474,795.2,77.3,17
59114,473454043,114.0,93.0,-75.0,0,0.491,795.2,77.3,17
59115,473462043,133.0,103.0,-69.0,0,0.493,795.2,77.3,17
59116,473470044,150.0,114.0,-61.0,0,0.505,795.2,77.3,17
59117,473478044,180.0,130.0,-51.0,0,0.512,795.2,77.3,17
59118,473486043,208.0,149.0,-39.0,0,0.514,795.2,77.3,17
59119,473494043,234.0,170.0,-24.0,0,0.519,795.2,77.3,17
59120,473502043,270.0,194.0,-6.0,0,0.516,795.2,77.3,17
59121,473510046,293.0,218.0,13.0,0,0.553,795.2,77.3,17
59122,473518043,325.0,244.0,34.0,0,0.6,795.2,77.3,17
59123,473526045,348.0,269.0,56.0,0,0.644,795.2,77.3,17
59124,473534043,367.0,293.0,78.0,0,0.684,795.2,77.3,17
59125,473542044,388.0,316.0,100.0,0,0.721,795.2,77.3,17
59126,473550043,403.0,337.0,122.0,0,0.757,795.2,77.3,17
59127,473558043,416.0,356.0,142.0,0,0.775,795.2,77.3,17
59128,473566043,419.0,371.0,161.0,0,0.793,795.2,77.3,17
59129,473574043,425.0,384.0,178.0,0,0.798,795.2,77.3,17
59130,473582045,426.0,394.0,192.0,0,0.785,795.2,77.3,17
59131,473590043,418.0,400.0,203.0,0,0.763,795.2,77.3,17
59132,473598043,418.0,405.0,212.0,0,0.747,795.2,77.3,17
59133,473606045,409.0,406.0,218.0,0,0.715,795.2,77.3,17
59134,473614046,400.0,404.0,222.0,0,0.693,795.2,77.3,17
59135,473622043,389.0,401.0,223.0,0,0.657,795.2,77.3,17
59136,473630046,374.0,394.0,222.0,1,0.654,795.2,77.3,17
59137,473638044,357.0,385.0,218.0,0,0.684,795.2,77.3,17
59138,473646045,346.0,376.0,212.0,0,0.7,795.2,77.3,17
59139,473654043,328.0,364.0,204.0,0,0.714,795.2,77.3,17
59140,473662043,313.0,352.0,194.0,0,0.725,795.2,77.3,17
59141,473670044,294.0,338.0,183.0,0,0.721,795.2,77.3,17
59142,473678043,279.0,323.0,171.0,0,0.714,795.2,77.3,17
59143,473686044,259.0,308.0,158.0,0,0.704,795.2,77.3,17
59144,473694043,240.0,291.0,143.0,0,0.699,795.2,77.3,17
59145,473702043,228.0,276.0,128.0,0,0.673,795.2,77.3,17
59146,473710043,210.0,260.0,113.0,0,0.647,795.2,77.3,17
59147,473718043,201.0,246.0,98.0,0,0.619,795.2,77.3,17
59148,473726043,181.0,230.0,82.0,0,0.599,795.2,77.3,17
59149,473734043,176.0,217.0,67.0,0,0.563,795.2,77.3,17
59150,473742043,166.0,205.0,53.0,0,0.53,795.2,77.3,17
59151,473750043,156.0,193.0,40.0,0,0.498,795.2,77.3,17
59152,473758043,154.0,183.0,27.0,0,0.478,795.2,77.3,17
59153,473766046,146.0,174.0,16.0,0,0.441,795.2,77.3,17
59154,473774043,144.0,167.0,6.0,0,0.44,795.2,77.3,17
59155,473782047,143.0,161.0,-3.0,0,0.443,795.2,77.3,17
59156,473790043,136.0,155.0,-11.0,0,0.444,795.2,77.3,17
59157,473798045,133.0,150.0,-18.0,0,0.443,795.2,77.3,17
59158,473806043,127.0,144.0,-25.0,0,0.455,795.2,77.3,17
59159,473814045,132.0,141.0,-30.0,0,0.438,795.2,77.3,17
59160,473822043,132.0,139.0,-35.0,0,0.446,795.2,77.3,17
59161,473830046,124.0,135.0,-39.0,0,0.44,795.2,77.3,17
59162,473838043,126.0,133.0,-42.0,0,0.432,795.2,77.3,17
59163,473846045,125.0,131.0,-45.0,0,0.436,795.2,77.3,17
59164,473854044,117.0,128.0,-48.0,0,0.441,795.2,77.3,17
59165,473862045,118.0,125.0,-51.0,0,0.445,795.2,77.3,17
59166,473870044,110.0,122.0,-54.0,0,0.45,795.2,77.3,17
59167,473878045,111.0,119.0,-57.0,0,0.454,795.2,77.3,17
59168,473886045,107.0,116.0,-59.0,0,0.445,795.2,77.3,17
59169,473894046,101.0,112.0,-62.0,0,0.461,795.2,77.3,17
59170,473902043,94.0,108.0,-65.0,0,0.466,795.2,77.3,17
59171,473910046,91.0,104.0,-68.0,0,0.471,795.2,77.3,17
59172,473918043,87.0,100.0,-72.0,0,0.489,795.2,77.3,17
59173,473926044,85.0,96.0,-75.0,0,0.482,795.2,77.3,17
59174,473934047,79.0,92.0,-78.0,0,0.487,795.2,77.3,17
59175,473942046,76.0,88.0,-82.0,0,0.506,795.2,77.3,17
59176,473950043,72.0,84.0,-85.0,0,0.498,795.2,77.3,17
59177,473958046,78.0,83.0,-88.0,0,0.503,795.2,77.3,17
59178,473966044,69.0,79.0,-90.0,0,0.493,795.2,77.3,17
59179,473974043,67.0,76.0,-93.0,0,0.511,795.2,77.3,17
59180,473982045,71.0,75.0,-95.0,0,0.501,795.2,77.3,17
59181,473990047,64.0,72.0,-97.0,0,0.504,795.2,77.3,17
59182,473998043,67.0,71.0,-99.0,0,0.507,795.2,77.3,17
59183,474006046,65.0,70.0,-100.0,0,0.495,795.2,77.3,17
59184,474014043,67.0,69.0,-101.0,0,0.496,795.2,77.3,17
59185,474022046,64.0,68.0,-102.0,0,0.498,795.2,77.3,17
59186,474030043,65.0,67.0,-102.0,1,0.485,795.2,77.3,17
59187,474038045,68.0,67.0,-102.0,0,0.484,795.2,77.3,17
59188,474046043,72.0,68.0,-102.0,0,0.483,795.2,77.3,17
59189,474054044,66.0,68.0,-102.0,0,0.483,795.2,77.3,17
59190,474062044,69.0,68.0,-101.0,0,0.492,795.2,77.3,17
59191,474070044,69.0,68.0,-101.0,1,0.48,795.2,77.3,17
59192,474078047,76.0,70.0,-100.0,0,0.49,795.2,77.3,17
59193,474086043,75.0,71.0,-98.0,0,0.498,795.2,77.3,17
59194,474094045,77.0,73.0,-97.0,0,0.483,795.2,77.3,17
59195,474102046,82.0,75.0,-95.0,0,0.492,795.2,77.3,17
59196,474110044,83.0,77.0,-93.0,0,0.488,795.2,77.3,17
59197,474118043,87.0,79.0,-90.0,0,0.495,795.2,77.3,17
59198,474126044,90.0,82.0,-88.0,0,0.478,795.2,77.3,17
59199,474134046,91.0,84.0,-85.0,0,0.485,795.2,77.3,17
59200,474142046,95.0,87.0,-82.0,0,0.479,795.2,77.3,17
59201,474150043,102.0,90.0,-79.0,0,0.474,795.2,77.3,17
59202,474158044,117.0,97.0,-75.0,0,0.479,795.2,77.3,17
59203,474166045,135.0,106.0,-69.0,0,0.495,795.2,77.3,17
59204,474174043,152.0,117.0,-62.0,0,0.495,795.2,77.3,17
59205,474182045,177.0,132.0,-52.0,0,0.515,795.2,77.3,17
59206,474190043,197.0,148.0,-41.0,0,0.506,795.2,77.3,17
59207,474198043,225.0,166.0,-28.0,0,0.506,795.2,77.3,17
59208,474206046,254.0,188.0,-12.0,0,0.507,795.2,77.3,17
59209,474214044,277.0,209.0,5.0,0,0.532,795.2,77.3,17
59210,474222044,303.0,232.0,24.0,0,0.578,795.2,77.3,17
59211,474230046,318.0,253.0,43.0,0,0.612,795.2,77.3,17
59212,474238043,340.0,274.0,62.0,0,0.646,795.2,77.3,17
59213,474246044,358.0,294.0,82.0,0,0.689,795.2,77.3,17
59214,474254043,369.0,312.0,101.0,0,0.715,795.2,77.3,17
59215,474262043,383.0,330.0,119.0,0,0.737,795.2,77.3,17
59216,474270043,383.0,343.0,135.0,0,0.745,795.2,77.3,17
59217,474278043,394.0,355.0,150.0,0,0.757,795.2,77.3,17
59218,474286043,396.0,365.0,163.0,0,0.753,795.2,77.3,17
59219,474294043,395.0,372.0,174.0,0,0.743,795.2,77.3,17
59220,474302046,390.0,377.0,183.0,0,0.729,795.2,77.3,17
59221,474310043,382.0,378.0,189.0,0,0.697,795.2,77.3,17
59222,474318043,373.0,377.0,192.0,0,0.661,795.2,77.3,17
59223,474326043,361.0,373.0,194.0,0,0.65,795.2,77.3,17
59224,474334043,348.0,367.0,192.0,1,0.646,795.2,77.3,17
59225,474342043,337.0,360.0,189.0,0,0.653,795.2,77.3,17
59226,474350043,321.0,350.0,184.0,0,0.67,795.2,77.3,17
59227,474358043,308.0,340.0,177.0,0,0.685,795.2,77.3,17
59228,474366043,290.0,328.0,168.0,0,0.696,795.2,77.3,17
59229,474374043,273.0,315.0,158.0,0,0.692,795.2,77.3,17
59230,474382045,255.0,300.0,146.0,0,0.695,795.2,77.3,17
59231,474390043,236.0,285.0,133.0,0,0.683,795.2,77.3,17
59232,474398044,218.0,268.0,119.0,0,0.668,795.2,77.3,17
59233,474406043,197.0,251.0,104.0,0,0.649,795.2,77.3,17
59234,474414044,181.0,234.0,88.0,0,0.628,795.2,77.3,17
59235,474422045,172.0,219.0,72.0,0,0.597,795.2,77.3,17
59236,474430043,161.0,205.0,57.0,0,0.56,795.2,77.3,17
59237,474438045,148.0,191.0,42.0,0,0.532,795.2,77.3,17
59238,474446043,143.0,179.0,28.0,0,0.498,795.2,77.3,17
59239,474454045,133.0,168.0,15.0,0,0.466,795.2,77.3,17
59240,474462043,133.0,160.0,4.0,0,0.451,795.2,77.3,17
59241,474470043,124.0,151.0,-7.0,0,0.469,795.2,77.3,17
59242,474478044,125.0,145.0,-17.0,0,0.475,795.2,77.3,17
59243,474486043,119.0,138.0,-25.0,0,0.466,795.2,77.3,17
59244,474494043,120.0,134.0,-32.0,0,0.467,795.2,77.3,17
59245,474502045,115.0,129.0,-39.0,0,0.48,795.2,77.3,17
59246,474510043,115.0,126.0,-44.0,0,0.465,795.2,77.3,17
59247,474518047,111.0,122.0,-49.0,0,0.474,795.2,77.3,17
59248,474526044,111.0,120.0,-53.0,0,0.469,795.2,77.3,17
59249,474534046,110.0,117.0,-57.0,0,0.477,795.2,77.3,17
59250,474542043,111.0,116.0,-59.0,0,0.457,795.2,77.3,17
59251,474550045,105.0,113.0,-62.0,0,0.473,795.2,77.3,17
59252,474558043,104.0,111.0,-64.0,0,0.465,795.2,77.3,17
59253,474566045,96.0,107.0,-67.0,0,0.481,795.2,77.3,17
59254,474574043,96.0,105.0,-69.0,0,0.473,795.2,77.3,17
59255,474582046,94.0,102.0,-72.0,0,0.489,795.2,77.3,17
59256,474590043,86.0,98.0,-74.0,0,0.48,795.2,77.3,17
59257,474598047,88.0,96.0,-77.0,0,0.497,795.2,77.3,17
59258,474606045,77.0,91.0,-80.0,0,0.501,795.2,77.3,17
59259,474614043,81.0,89.0,-82.0,0,0.492,795.2,77.3,17
59260,474622046,78.0,86.0,-85.0,0,0.509,795.2,77.3,17
59261,474630046,71.0,82.0,-87.0,0,0.499,795.2,77.3,17
59262,474638046,68.0,79.0,-90.0,0,0.516,795.2,77.3,17
59263,474646047,68.0,76.0,-92.0,0,0.506,795.2,77.3,17
59264,474654045,64.0,73.0,-95.0,0,0.523,795.2,77.3,17
59265,474662046,60.0,70.0,-97.0,0,0.513,795.2,77.3,17
59266,474670043,60.0,68.0,-99.0,0,0.516,795.2,77.3,17
59267,474678045,58.0,65.0,-101.0,0,0.519,795.2,77.3,17
59268,474686043,58.0,64.0,-103.0,0,0.522,795.2,77.3,17
59269,474694045,59.0,62.0,-105.0,0,0.524,795.2,77.3,17
59270,474702043,67.0,64.0,-105.0,1,0.5,795.2,77.3,17
59271,474710043,65.0,64.0,-105.0,0,0.499,795.2,77.3,17
59272,474718043,64.0,64.0,-105.0,0,0.498,795.2,77.3,17
59273,474726043,68.0,65.0,-104.0,0,0.506,795.2,77.3,17
59274,474734043,69.0,66.0,-103.0,0,0.503,795.2,77.3,17
59275,474742045,75.0,68.0,-102.0,0,0.5,795.2,77.3,17
59276,474750043,70.0,69.0,-101.0,0,0.497,795.2,77.3,17
59277,474758045,76.0,70.0,-99.0,0,0.505,795.2,77.3,17
59278,474766044,78.0,72.0,-97.0,0,0.5,795.2,77.3,17
59279,474774046,84.0,75.0,-95.0,0,0.495,795.2,77.3,17
59280,474782043,84.0,77.0,-92.0,0,0.502,795.2,77.3,17
59281,474790043,84.0,79.0,-90.0,0,0.484,795.2,77.3,17
59282,474798044,92.0,82.0,-87.0,0,0.491,795.2,77.3,17
59283,474806043,89.0,84.0,-85.0,0,0.473,795.2,77.3,17
59284,474814044,92.0,86.0,-82.0,0,0.48,795.2,77.3,17
59285,474822043,98.0,89.0,-79.0,0,0.474,795.2,77.3,17
59286,474830043,97.0,91.0,-76.0,0,0.467,795.2,77.3,17
59287,474838044,99.0,93.0,-74.0,0,0.45,795.2,77.3,17
59288,474846044,103.0,95.0,-71.0,0,0.457,795.2,77.3,17
59289,474854046,103.0,97.0,-68.0,0,0.451,795.2,77.3,17
59290,474862043,114.0,101.0,-65.0,0,0.445,795.2,77.3,17
59291,474870044,117.0,105.0,-62.0,0,0.44,795.2,77.3,17
59292,474878043,133.0,112.0,-57.0,0,0.457,795.2,77.3,17
59293,474886044,155.0,122.0,-51.0,0,0.459,795.2,77.3,17
59294,474894043,173.0,135.0,-43.0,0,0.471,795.2,77.3,17
59295,474902044,200.0,150.0,-33.0,0,0.478,795.2,77.3,17
59296,474910043,223.0,168.0,-20.0,0,0.489,795.2,77.3,17
59297,474918046,254.0,189.0,-6.0,0,0.495,795.2,77.3,17
59298,474926044,279.0,211.0,11.0,0,0.551,795.2,77.3,17
59299,474934045,309.0,235.0,29.0,0,0.59,795.2,77.3,17
59300,474942043,335.0,259.0,50.0,0,0.648,795.2,77.3,17
59301,474950044,356.0,282.0,70.0,0,0.68,795.2,77.3,17
59302,474958043,381.0,306.0,92.0,0,0.73,795.2,77.3,17
59303,474966043,396.0,328.0,113.0,0,0.76,795.2,77.3,17
59304,474974043,411.0,348.0,133.0,0,0.785,795.2,77.3,17
59305,474982043,420.0,366.0,153.0,0,0.811,795.2,77.3,17
59306,474990043,428.0,381.0,170.0,0,0.81,795.2,77.3,17
59307,474998043,433.0,393.0,186.0,0,0.817,795.2,77.3,17
59308,475006043,434.0,403.0,200.0,0,0.811,795.2,77.3,17
59309,475014044,433.0,410.0,211.0,0,0.787,795.2,77.3,17
59310,475022043,431.0,415.0,220.0,0,0.769,795.2,77.3,17
59311,475030043,419.0,416.0,227.0,0,0.748,795.2,77.3,17
59312,475038043,411.0,415.0,230.0,0,0.699,795.2,77.3,17
59313,475046045,399.0,411.0,231.0,0,0.674,795.2,77.3,17
59314,475054045,381.0,404.0,229.0,1,0.683,795.2,77.3,17
59315,475062046,368.0,395.0,225.0,0,0.702,795.2,77.3,17
59316,475070043,349.0,384.0,219.0,0,0.72,795.2,77.3,17
59317,475078043,330.0,371.0,210.0,0,0.747,795.2,77.3,17
59318,475086043,308.0,356.0,199.0,0,0.757,795.2,77.3,17
59319,475094043,293.0,340.0,187.0,0,0.753,795.2,77.3,17
59320,475102043,271.0,324.0,173.0,0,0.754,795.2,77.3,17
59321,475110043,254.0,307.0,158.0,0,0.74,795.2,77.3,17
59322,475118043,235.0,289.0,142.0,0,0.723,795.2,77.3,17
59323,475126043,214.0,271.0,125.0,0,0.702,795.2,77.3,17
59324,475134043,201.0,254.0,108.0,0,0.671,795.2,77.3,17
59325,475142043,187.0,238.0,91.0,0,0.638,795.2,77.3,17
59326,475150043,172.0,222.0,75.0,0,0.6,795.2,77.3,17
59327,475158043,166.0,208.0,59.0,0,0.569,795.2,77.3,17
59328,475166044,159.0,196.0,44.0,0,0.533,795.2,77.3,17
59329,475174046,150.0,185.0,30.0,0,0.499,795.2,77.3,17
59330,475182043,143.0,175.0,18.0,0,0.458,795.2,77.3,17
59331,475190046,135.0,165.0,6.0,0,0.459,795.2,77.3,17
59332,475198044,134.0,158.0,-5.0,0,0.466,795.2,77.3,17
59333,475206044,126.0,150.0,-14.0,0,0.459,795.2,77.3,17
59334,475214043,120.0,143.0,-23.0,0,0.475,795.2,77.3,17
59335,475222044,120.0,137.0,-31.0,0,0.477,795.2,77.3,17
59336,475230043,115.0,132.0,-38.0,0,0.478,795.2,77.3,17
59337,475238046,117.0,128.0,-44.0,0,0.478,795.2,77.3,17
59338,475246043,112.0,124.0,-49.0,0,0.475,795.2,77.3,17
59339,475254043,108.0,120.0,-54.0,0,0.484,795.2,77.3,17
59340,475262045,109.0,118.0,-58.0,0,0.48,795.2,77.3,17
59341,475270046,105.0,115.0,-62.0,0,0.487,795.2,77.3,17
59342,475278043,103.0,112.0,-65.0,0,0.481,795.2,77.3,17
59343,475286044,103.0,110.0,-68.0,0,0.486,795.2,77.3,17
59344,475294043,97.0,107.0,-70.0,0,0.478,795.2,77.3,17
59345,475302043,95.0,104.0,-73.0,0,0.494,795.2,77.3,17
59346,475310043,88.0,100.0,-76.0,0,0.499,795.2,77.3,17
59347,475318047,88.0,97.0,-78.0,0,0.49,795.2,77.3,17
59348,475326043,84.0,94.0,-81.0,0,0.506,795.2,77.3,17
59349,475334043,80.0,91.0,-84.0,0,0.511,795.2,77.3,17
59350,475342043,74.0,87.0,-87.0,0,0.516,795.2,77.3,17
59351,475350047,72.0,83.0,-89.0,0,0.506,795.2,77.3,17
59352,475358044,69.0,80.0,-92.0,0,0.523,795.2,77.3,17
59353,475366047,67.0,77.0,-95.0,0,0.527,795.2,77.3,17
59354,475374043,62.0,73.0,-98.0,0,0.532,795.2,77.3,17
59355,475382047,60.0,70.0,-100.0,0,0.522,795.2,77.3,17
59356,475390043,60.0,67.0,-103.0,0,0.539,795.2,77.3,17
59357,475398047,60.0,66.0,-105.0,0,0.529,795.2,77.3,17
59358,475406043,59.0,64.0,-106.0,0,0.518,795.2,77.3,17
59359,475414047,60.0,63.0,-108.0,0,0.533,795.2,77.3,17
59360,475422043,60.0,62.0,-109.0,0,0.522,795.2,77.3,17
59361,475430047,57.0,61.0,-109.0,1,0.509,795.2,77.3,17
59362,475438043,62.0,61.0,-110.0,0,0.522,795.2,77.3,17
59363,475446043,60.0,61.0,-110.0,1,0.51,795.2,77.3,17
59364,475454043,58.0,60.0,-110.0,0,0.509,795.2,77.3,17
59365,475462046,60.0,60.0,-110.0,0,0.508,795.2,77.3,17
59366,475470043,63.0,61.0,-109.0,0,0.517,795.2,77.3,17
59367,475478046,68.0,63.0,-108.0,0,0.514,795.2,77.3,17
59368,475486043,67.0,64.0,-107.0,0,0.511,795.2,77.3,17
59369,475494047,69.0,65.0,-105.0,0,0.518,795.2,77.3,17
59370,475502043,74.0,67.0,-104.0,0,0.503,795.2,77.3,17
59371,475510047,70.0,68.0,-102.0,0,0.51,795.2,77.3,17
59372,475518043,76.0,70.0,-100.0,0,0.506,795.2,77.3,17
59373,475526047,76.0,71.0,-98.0,0,0.501,795.2,77.3,17
59374,475534044,82.0,74.0,-95.0,0,0.507,795.2,77.3,17
59375,475542045,85.0,77.0,-93.0,0,0.489,795.2,77.3,17
59376,475550047,87.0,79.0,-90.0,0,0.495,795.2,77.3,17
59377,475558043,89.0,82.0,-87.0,0,0.489,795.2,77.3,17
59378,475566044,91.0,84.0,-85.0,0,0.471,795.2,77.3,17
59379,475574043,92.0,86.0,-82.0,0,0.478,795.2,77.3,17
59380,475582047,104.0,90.0,-78.0,0,0.483,795.2,77.3,17
59381,475590043,109.0,95.0,-75.0,0,0.463,795.2,77.3,17
59382,475598047,115.0,100.0,-70.0,0,0.48,795.2,77.3,17
59383,475606043,141.0,110.0,-64.0,0,0.482,795.2,77.3,17
59384,475614043,163.0,123.0,-56.0,0,0.493,795.2,77.3,17
59385,475622044,191.0,139.0,-46.0,0,0.499,795.2,77.3,17
59386,475630043,214.0,157.0,-33.0,0,0.509,795.2,77.3,17
59387,475638046,245.0,179.0,-18.0,0,0.502,795.2,77.3,17
59388,475646043,272.0,201.0,-1.0,0,0.535,795.2,77.3,17
59389,475654047,299.0,225.0,18.0,0,0.583,795.2,77.3,17
59390,475662043,324.0,249.0,38.0,0,0.627,795.2,77.3,17
59391,475670044,348.0,273.0,59.0,0,0.672,795.2,77.3,17
59392,475678043,366.0,296.0,80.0,0,0.711,795.2,77.3,17
59393,475686046,383.0,317.0,101.0,0,0.748,795.2,77.3,17
59394,475694045,398.0,336.0,122.0,0,0.782,795.2,77.3,17
59395,475702044,405.0,353.0,141.0,0,0.796,795.2,77.3,17
59396,475710045,412.0,367.0,158.0,0,0.803,795.2,77.3,17
59397,475718043,417.0,379.0,173.0,0,0.802,795.2,77.3,17
59398,475726043,418.0,389.0,186.0,0,0.794,795.2,77.3,17
59399,475734044,412.0,394.0,197.0,0,0.781,795.2,77.3,17
59400,475742044,405.0,397.0,205.0,0,0.751,795.2,77.3,17
59401,475750044,400.0,398.0,210.0,0,0.716,795.2,77.3,17
59402,475758044,390.0,396.0,213.0,0,0.692,795.2,77.3,17
59403,475766043,372.0,390.0,213.0,1,0.655,795.2,77.3,17
59404,475774043,363.0,383.0,211.0,0,0.674,795.2,77.3,17
59405,475782043,352.0,376.0,207.0,0,0.693,795.2,77.3,17
59406,475790045,329.0,364.0,200.0,0,0.723,795.2,77.3,17
59407,475798043,314.0,352.0,192.0,0,0.725,795.2,77.3,17
59408,475806043,299.0,339.0,182.0,0,0.736,795.2,77.3,17
59409,475814043,272.0,323.0,169.0,0,0.751,795.2,77.3,17
59410,475822043,260.0,308.0,156.0,0,0.732,795.2,77.3,17
59411,475830045,235.0,290.0,141.0,0,0.727,795.2,77.3,17
59412,475838043,220.0,273.0,126.0,0,0.701,795.2,77.3,17
59413,475846043,206.0,257.0,110.0,0,0.68,795.2,77.3,17
59414,475854043,188.0,240.0,94.0,0,0.649,795.2,77.3,17
59415,475862044,177.0,225.0,78.0,0,0.618,795.2,77.3,17
59416,475870043,164.0,210.0,62.0,0,0.586,795.2,77.3,17
59417,475878043,156.0,197.0,47.0,0,0.548,795.2,77.3,17
59418,475886043,148.0,185.0,33.0,0,0.513,795.2,77.3,17
59419,475894046,141.0,174.0,20.0,0,0.479,795.2,77.3,17
59420,475902043,137.0,165.0,8.0,0,0.452,795.2,77.3,17
59421,475910044,132.0,157.0,-3.0,0,0.46,795.2,77.3,17
59422,475918043,131.0,151.0,-12.0,0,0.453,795.2,77.3,17
59423,475926045,127.0,145.0,-20.0,0,0.456,795.2,77.3,17
59424,475934043,126.0,140.0,-28.0,0,0.471,795.2,77.3,17
59425,475942044,124.0,136.0,-34.0,0,0.459,795.2,77.3,17
59426,475950043,118.0,132.0,-39.0,0,0.456,795.2,77.3,17
59427,475958043,124.0,130.0,-44.0,0,0.466,795.2,77.3,17
59428,475966043,120.0,128.0,-48.0,0,0.462,795.2,77.3,17
59429,475974045,115.0,125.0,-51.0,0,0.457,795.2,77.3,17
59430,475982043,115.0,122.0,-54.0,0,0.463,795.2,77.3,17
59431,475990044,105.0,118.0,-57.0,0,0.469,795.2,77.3,17
59432,475998043,107.0,115.0,-60.0,0,0.475,795.2,77.3,17
59433,476006044,97.0,111.0,-63.0,0,0.481,795.2,77.3,17
59434,476014044,97.0,108.0,-67.0,0,0.5,795.2,77.3,17
59435,476022045,94.0,104.0,-70.0,0,0.494,795.2,77.3,17
59436,476030043,87.0,100.0,-73.0,0,0.5,795.2,77.3,17
59437,476038045,90.0,98.0,-76.0,0,0.505,795.2,77.3,17
59438,476046043,80.0,93.0,-79.0,0,0.511,795.2,77.3,17
59439,476054046,76.0,89.0,-82.0,0,0.516,795.2,77.3,17
59440,476062043,70.0,85.0,-85.0,0,0.521,795.2,77.3,17
59441,476070045,70.0,81.0,-89.0,0,0.54,795.2,77.3,17
59442,476078043,68.0,78.0,-92.0,0,0.533,795.2,77.3,17
59443,476086046,67.0,75.0,-94.0,0,0.524,795.2,77.3,17
59444,476094043,64.0,72.0,-97.0,0,0.54,795.2,77.3,17
59445,476102046,63.0,70.0,-99.0,0,0.531,795.2,77.3,17
59446,476110043,58.0,67.0,-102.0,0,0.548,795.2,77.3,17
59447,476118045,66.0,67.0,-103.0,0,0.524,795.2,77.3,17
59448,476126043,63.0,66.0,-104.0,0,0.525,795.2,77.3,17
59449,476134045,63.0,65.0,-105.0,0,0.526,795.2,77.3,17
59450,476142043,68.0,66.0,-105.0,1,0.513,795.2,77.3,17
59451,476150043,60.0,64.0,-106.0,0,0.525,795.2,77.3,17
59452,476158043,68.0,65.0,-105.0,1,0.523,795.2,77.3,17
59453,476166043,69.0,66.0,-105.0,1,0.51,795.2,77.3,17
59454,476174043,71.0,67.0,-104.0,0,0.519,795.2,77.3,17
59455,476182045,70.0,68.0,-103.0,0,0.516,795.2,77.3,17
59456,476190043,70.0,68.0,-102.0,0,0.514,795.2,77.3,17
59457,476198046,77.0,71.0,-100.0,0,0.521,795.2,77.3,17
59458,476206043,73.0,71.0,-99.0,0,0.506,795.2,77.3,17
59459,476214043,77.0,73.0,-97.0,0,0.514,795.2,77.3,17
59460,476222044,79.0,74.0,-95.0,0,0.509,795.2,77.3,17
59461,476230046,80.0,76.0,-93.0,0,0.504,795.2,77.3,17
59462,476238043,84.0,78.0,-91.0,0,0.499,795.2,77.3,17
59463,476246045,85.0,79.0,-89.0,0,0.494,795.2,77.3,17
59464,476254044,84.0,81.0,-87.0,0,0.489,795.2,77.3,17
59465,476262043,86.0,82.0,-85.0,0,0.484,795.2,77.3,17
59466,476270043,84.0,82.0,-84.0,0,0.469,795.2,77.3,17
59467,476278043,90.0,84.0,-82.0,0,0.476,795.2,77.3,17
59468,476286043,92.0,86.0,-80.0,0,0.471,795.2,77.3,17
59469,476294043,91.0,87.0,-78.0,0,0.467,795.2,77.3,17
59470,476302043,96.0,89.0,-76.0,0,0.462,795.2,77.3,17
59471,476310043,92.0,90.0,-74.0,0,0.457,795.2,77.3,17
59472,476318043,102.0,93.0,-72.0,0,0.452,795.2,77.3,17
59473,476326043,113.0,98.0,-68.0,0,0.47,795.2,77.3,17
59474,476334043,123.0,104.0,-64.0,0,0.461,795.2,77.3,17
59475,476342046,140.0,113.0,-59.0,0,0.465,795.2,77.3,17
59476,476350045,153.0,122.0,-52.0,0,0.478,795.2,77.3,17
59477,476358045,181.0,137.0,-43.0,0,0.486,795.2,77.3,17
59478,476366046,205.0,153.0,-32.0,0,0.489,795.2,77.3,17
59479,476374044,230.0,172.0,-19.0,0,0.488,795.2,77.3,17
59480,476382043,264.0,194.0,-3.0,0,0.523,795.2,77.3,17
59481,476390044,287.0,217.0,15.0,0,0.572,795.2,77.3,17
59482,476398045,320.0,242.0,34.0,0,0.615,795.2,77.3,17
59483,476406044,346.0,267.0,55.0,0,0.668,795.2,77.3,17
59484,476414044,362.0,290.0,77.0,0,0.715,795.2,77.3,17
59485,476422044,390.0,314.0,98.0,0,0.748,795.2,77.3,17
59486,476430043,401.0,335.0,120.0,0,0.79,795.2,77.3,17
59487,476438044,419.0,356.0,140.0,0,0.807,795.2,77.3,17
59488,476446043,424.0,372.0,159.0,0,0.824,795.2,77.3,17
59489,476454044,425.0,385.0,176.0,0,0.827,795.2,77.3,17
59490,476462044,432.0,396.0,191.0,0,0.824,795.2,77.3,17
59491,476470043,426.0,404.0,203.0,0,0.802,795.2,77.3,17
59492,476478043,423.0,408.0,213.0,0,0.786,795.2,77.3,17
59493,476486043,404.0,407.0,219.0,0,0.739,795.2,77.3,17
59494,476494044,404.0,406.0,223.0,0,0.715,795.2,77.3,17
59495,476502044,394.0,403.0,224.0,0,0.678,795.2,77.3,17
59496,476510043,374.0,396.0,223.0,1,0.675,795.2,77.3,17
59497,476518043,361.0,388.0,219.0,0,0.707,795.2,77.3,17
59498,476526043,344.0,377.0,213.0,0,0.725,795.2,77.3,17
59499,476534044,325.0,364.0,204.0,0,0.753,795.2,77.3,17
59500,476542043,308.0,351.0,194.0,0,0.753,795.2,77.3,17
59501,476550043,288.0,336.0,182.0,0,0.76,795.2,77.3,17
59502,476558043,271.0,320.0,169.0,0,0.752,795.2,77.3,17
59503,476566043,244.0,302.0,154.0,0,0.749,795.2,77.3,17
59504,476574044,225.0,283.0,138.0,0,0.732,795.2,77.3,17
59505,476582043,213.0,266.0,121.0,0,0.71,795.2,77.3,17
59506,476590043,185.0,246.0,104.0,0,0.678,795.2,77.3,17
59507,476598043,180.0,230.0,86.0,0,0.651,795.2,77.3,17
59508,476606043,159.0,213.0,69.0,0,0.61,795.2,77.3,17
59509,476614044,146.0,197.0,52.0,0,0.577,795.2,77.3,17
59510,476622044,137.0,182.0,36.0,0,0.538,795.2,77.3,17
59511,476630044,124.0,168.0,20.0,0,0.509,795.2,77.3,17
59512,476638044,117.0,156.0,6.0,0,0.474,795.2,77.3,17
59513,476646044,110.0,145.0,-8.0,0,0.497,795.2,77.3,17
59514,476654043,105.0,135.0,-20.0,0,0.498,795.2,77.3,17
59515,476662043,100.0,127.0,-31.0,0,0.507,795.2,77.3,17
59516,476670043,92.0,118.0,-42.0,0,0.528,795.2,77.3,17
59517,476678043,88.0,111.0,-51.0,0,0.523,795.2,77.3,17
59518,476686043,89.0,106.0,-59.0,0,0.527,795.2,77.3,17
59519,476694045,79.0,99.0,-66.0,0,0.528,795.2,77.3,17
59520,476702043,80.0,94.0,-73.0,0,0.541,795.2,77.3,17
59521,476710047,78.0,90.0,-78.0,0,0.527,795.2,77.3,17
59522,476718045,77.0,87.0,-83.0,0,0.537,795.2,77.3,17
59523,476726044,76.0,84.0,-87.0,0,0.532,795.2,77.3,17
59524,476734043,74.0,82.0,-90.0,0,0.526,795.2,77.3,17
59525,476742043,74.0,80.0,-93.0,0,0.531,795.2,77.3,17
59526,476750043,72.0,78.0,-95.0,0,0.523,795.2,77.3,17
59527,476758044,72.0,77.0,-97.0,0,0.526,795.2,77.3,17
59528,476766045,66.0,74.0,-99.0,0,0.529,795.2,77.3,17
59529,476774044,68.0,73.0,-101.0,0,0.532,795.2,77.3,17
59530,476782045,68.0,71.0,-102.0,0,0.522,795.2,77.3,17
59531,476790043,68.0,71.0,-103.0,0,0.523,795.2,77.3,17
59532,476798045,69.0,70.0,-103.0,1,0.511,795.2,77.3,17
59533,476806043,64.0,69.0,-104.0,0,0.522,795.2,77.3,17
59534,476814044,68.0,69.0,-104.0,1,0.51,795.2,77.3,17
59535,476822043,62.0,67.0,-105.0,0,0.522,795.2,77.3,17
59536,476830044,62.0,66.0,-105.0,1,0.509,795.2,77.3,17
59537,476838043,60.0,64.0,-106.0,0,0.521,795.2,77.3,17
59538,476846045,61.0,64.0,-106.0,1,0.509,795.2,77.3,17
59539,476854046,61.0,63.0,-106.0,0,0.508,795.2,77.3,17
59540,476862043,60.0,62.0,-107.0,0,0.52,795.2,77.3,17
59541,476870045,64.0,63.0,-106.0,1,0.517,795.2,77.3,17
59542,476878047,60.0,62.0,-106.0,1,0.504,795.2,77.3,17
59543,476886044,64.0,62.0,-106.0,0,0.503,795.2,77.3,17
59544,476894043,67.0,64.0,-105.0,0,0.512,795.2,77.3,17
59545,476902045,69.0,65.0,-104.0,0,0.509,795.2,77.3,17
59546,476910043,71.0,66.0,-102.0,0,0.516,795.2,77.3,17
59547,476918044,73.0,68.0,-101.0,0,0.501,795.2,77.3,17
59548,476926043,73.0,69.0,-99.0,0,0.509,795.2,77.3,17
59549,476934045,74.0,70.0,-97.0,0,0.504,795.2,77.3,17
59550,476942045,76.0,72.0,-96.0,0,0.489,795.2,77.3,17
59551,476950046,75.0,73.0,-94.0,0,0.496,795.2,77.3,17
59552,476958045,80.0,74.0,-92.0,0,0.491,795.2,77.3,17
59553,476966043,82.0,76.0,-90.0,0,0.486,795.2,77.3,17
59554,476974046,80.0,77.0,-88.0,0,0.481,795.2,77.3,17
59555,476982045,84.0,79.0,-86.0,0,0.477,795.2,77.3,17
59556,476990045,85.0,80.0,-84.0,0,0.472,795.2,77.3,17
59557,476998045,92.0,83.0,-82.0,0,0.467,795.2,77.3,17
59558,477006043,89.0,85.0,-79.0,0,0.473,795.2,77.3,17
59559,477014045,90.0,86.0,-77.0,0,0.456,795.2,77.3,17
59560,477022045,94.0,88.0,-75.0,0,0.452,795.2,77.3,17
59561,477030047,93.0,89.0,-73.0,0,0.447,795.2,77.3,17
59562,477038044,97.0,91.0,-71.0,0,0.443,795.2,77.3,17
59563,477046043,101.0,93.0,-69.0,0,0.439,795.2,77.3,17
59564,477054043,104.0,96.0,-66.0,0,0.445,795.2,77.3,17
59565,477062043,108.0,99.0,-63.0,0,0.439,795.2,77.3,17
59566,477070044,105.0,100.0,-61.0,0,0.423,795.2,77.3,17
59567,477078044,116.0,104.0,-58.0,0,0.429,795.2,77.3,17
59568,477086043,125.0,109.0,-54.0,0,0.435,795.2,77.3,17
59569,477094045,138.0,116.0,-50.0,0,0.427,795.2,77.3,17
59570,477102043,154.0,125.0,-44.0,0,0.443,795.2,77.3,17
59571,477110045,173.0,137.0,-36.0,0,0.454,795.2,77.3,17
59572,477118043,202.0,153.0,-26.0,0,0.461,795.2,77.3,17
59573,477126043,224.0,170.0,-14.0,0,0.464,795.2,77.3,17
59574,477134043,248.0,189.0,0.0,0,0.505,795.2,77.3,17
59575,477142045,277.0,210.0,16.0,0,0.551,795.2,77.3,17
59576,477150043,304.0,233.0,34.0,0,0.6,795.2,77.3,17
59577,477158045,332.0,257.0,53.0,0,0.642,795.2,77.3,17
59578,477166043,356.0,281.0,73.0,0,0.686,795.2,77.3,17
59579,477174045,375.0,304.0,94.0,0,0.729,795.2,77.3,17
59580,477182043,395.0,326.0,115.0,0,0.764,795.2,77.3,17
59581,477190043,404.0,345.0,135.0,0,0.788,795.2,77.3,17
59582,477198043,416.0,362.0,154.0,0,0.806,795.2,77.3,17
59583,477206044,425.0,377.0,171.0,0,0.81,795.2,77.3,17
59584,477214043,425.0,389.0,187.0,0,0.818,795.2,77.3,17
59585,477222045,423.0,397.0,199.0,0,0.789,795.2,77.3,17
59586,477230043,419.0,402.0,210.0,0,0.786,795.2,77.3,17
59587,477238044,416.0,406.0,217.0,0,0.742,795.2,77.3,17
59588,477246044,409.0,407.0,223.0,0,0.733,795.2,77.3,17
59589,477254043,396.0,404.0,225.0,0,0.684,795.2,77.3,17
59590,477262043,381.0,398.0,225.0,1,0.66,795.2,77.3,17
59591,477270044,363.0,390.0,222.0,0,0.69,795.2,77.3,17
59592,477278043,346.0,379.0,217.0,0,0.708,795.2,77.3,17
59593,477286043,328.0,367.0,209.0,0,0.736,795.2,77.3,17
59594,477294043,309.0,353.0,199.0,0,0.748,795.2,77.3,17
59595,477302043,292.0,338.0,187.0,0,0.755,795.2,77.3,17
59596,477310043,270.0,322.0,174.0,0,0.748,795.2,77.3,17
59597,477318043,247.0,303.0,159.0,0,0.745,795.2,77.3,17
59598,477326043,231.0,286.0,143.0,0,0.728,795.2,77.3,17
59599,477334043,212.0,268.0,127.0,0,0.7,795.2,77.3,17
59600,477342043,196.0,251.0,110.0,0,0.678,795.2,77.3,17
59601,477350043,176.0,232.0,92.0,0,0.652,795.2,77.3,17
59602,477358043,171.0,218.0,76.0,0,0.605,795.2,77.3,17
59603,477366046,163.0,204.0,60.0,0,0.574,795.2,77.3,17
59604,477374043,152.0,192.0,45.0,0,0.537,795.2,77.3,17
59605,477382044,150.0,182.0,31.0,0,0.503,795.2,77.3,17
59606,477390043,140.0,171.0,19.0,0,0.462,795.2,77.3,17
59607,477398046,142.0,164.0,8.0,0,0.44,795.2,77.3,17
59608,477406044,138.0,158.0,-2.0,0,0.445,795.2,77.3,17
59609,477414047,136.0,153.0,-10.0,0,0.436,795.2,77.3,17
59610,477422043,135.0,148.0,-17.0,0,0.437,795.2,77.3,17
59611,477430043,127.0,143.0,-23.0,0,0.436,795.2,77.3,17
59612,477438043,134.0,141.0,-29.0,0,0.447,795.2,77.3,17
59613,477446043,127.0,138.0,-33.0,0,0.431,795.2,77.3,17
59614,477454043,126.0,135.0,-37.0,0,0.438,795.2,77.3,17
59615,477462047,134.0,135.0,-40.0,0,0.432,795.2,77.3,17
59616,477470043,127.0,133.0,-42.0,0,0.425,795.2,77.3,17
59617,477478044,131.0,132.0,-44.0,0,0.428,795.2,77.3,17
59618,477486043,123.0,130.0,-46.0,0,0.432,795.2,77.3,17
59619,477494044,119.0,127.0,-48.0,0,0.435,795.2,77.3,17
59620,477502043,118.0,125.0,-50.0,0,0.438,795.2,77.3,17
59621,477510043,115.0,123.0,-52.0,0,0.442,795.2,77.3,17
59622,477518043,108.0,119.0,-54.0,0,0.445,795.2,77.3,17
59623,477526044,108.0,116.0,-57.0,0,0.461,795.2,77.3,17
59624,477534043,101.0,113.0,-59.0,0,0.453,795.2,77.3,17
59625,477542043,100.0,110.0,-62.0,0,0.469,795.2,77.3,17
59626,477550043,98.0,107.0,-64.0,0,0.46,795.2,77.3,17
59627,477558043,97.0,104.0,-67.0,0,0.477,795.2,77.3,17
59628,477566045,87.0,100.0,-69.0,0,0.468,795.2,77.3,17
59629,477574046,91.0,98.0,-72.0,0,0.484,795.2,77.3,17
59630,477582043,91.0,96.0,-74.0,0,0.475,795.2,77.3,17
59631,477590045,80.0,92.0,-76.0,0,0.478,795.2,77.3,17
59632,477598043,90.0,92.0,-78.0,0,0.481,795.2,77.3,17
59633,477606043,85.0,90.0,-80.0,0,0.483,795.2,77.3,17
59634,477614044,88.0,90.0,-81.0,0,0.473,795.2,77.3,17
59635,477622043,87.0,89.0,-82.0,0,0.474,795.2,77.3,17
59636,477630046,84.0,88.0,-82.0,1,0.461,795.2,77.3,17
59637,477638044,84.0,87.0,-83.0,0,0.474,795.2,77.3,17
59638,477646043,84.0,86.0,-83.0,1,0.461,795.2,77.3,17
59639,477654043,84.0,86.0,-84.0,0,0.474,795.2,77.3,17
59640,477662043,86.0,86.0,-84.0,1,0.461,795.2,77.3,17
59641,477670043,81.0,85.0,-84.0,0,0.46,795.2,77.3,17
59642,477678043,89.0,86.0,-84.0,0,0.459,795.2,77.3,17
59643,477686046,85.0,85.0,-83.0,0,0.468,795.2,77.3,17
59644,477694043,90.0,87.0,-83.0,1,0.455,795.2,77.3,17
59645,477702043,89.0,87.0,-82.0,0,0.464,795.2,77.3,17
59646,477710043,90.0,88.0,-81.0,0,0.461,795.2,77.3,17
59647,477718043,92.0,89.0,-80.0,0,0.458,795.2,77.3,17
59648,477726043,89.0,89.0,-79.0,0,0.455,795.2,77.3,17
59649,477734047,88.0,89.0,-78.0,0,0.453,795.2,77.3,17
59650,477742043,92.0,89.0,-77.0,0,0.45,795.2,77.3,17
59651,477750044,89.0,89.0,-76.0,0,0.447,795.2,77.3,17
59652,477758043,92.0,90.0,-76.0,1,0.435,795.2,77.3,17
59653,477766043,98.0,92.0,-74.0,0,0.455,795.2,77.3,17
59654,477774043,108.0,96.0,-72.0,0,0.45,795.2,77.3,17
59655,477782045,117.0,101.0,-69.0,0,0.457,795.2,77.3,17
59656,477790043,131.0,108.0,-65.0,0,0.462,795.2,77.3,17
59657,477798043,148.0,118.0,-59.0,0,0.477,795.2,77.3,17
59658,477806044,170.0,131.0,-51.0,0,0.487,795.2,77.3,17
59659,477814043,192.0,145.0,-41.0,0,0.493,795.2,77.3,17
59660,477822043,221.0,164.0,-28.0,0,0.503,795.2,77.3,17
59661,477830043,247.0,184.0,-14.0,0,0.489,795.2,77.3,17
59662,477838043,279.0,207.0,3.0,0,0.536,795.2,77.3,17
59663,477846044,306.0,231.0,22.0,0,0.584,795.2,77.3,17
59664,477854043,329.0,255.0,42.0,0,0.628,795.2,77.3,17
59665,477862043,354.0,279.0,63.0,0,0.674,795.2,77.3,17
59666,477870043,370.0,301.0,84.0,0,0.714,795.2,77.3,17
59667,477878043,383.0,321.0,104.0,0,0.743,795.2,77.3,17
59668,477886044,401.0,340.0,124.0,0,0.775,795.2,77.3,17
59669,477894043,408.0,357.0,143.0,0,0.796,795.2,77.3,17
59670,477902043,416.0,371.0,160.0,0,0.802,795.2,77.3,17
59671,477910043,417.0,382.0,174.0,0,0.79,795.2,77.3,17
59672,477918043,420.0,391.0,187.0,0,0.792,795.2,77.3,17
59673,477926043,413.0,397.0,197.0,0,0.767,795.2,77.3,17
59674,477934043,407.0,399.0,205.0,0,0.749,795.2,77.3,17
59675,477942046,399.0,399.0,210.0,0,0.714,795.2,77.3,17
59676,477950043,383.0,395.0,212.0,0,0.678,795.2,77.3,17
59677,477958043,377.0,391.0,212.0,1,0.653,795.2,77.3,17
59678,477966043,357.0,383.0,209.0,0,0.683,795.2,77.3,17
59679,477974043,342.0,373.0,204.0,0,0.702,795.2,77.3,17
59680,477982043,329.0,362.0,197.0,0,0.718,795.2,77.3,17
59681,477990043,308.0,349.0,188.0,0,0.731,795.2,77.3,17
59682,477998043,289.0,334.0,177.0,0,0.739,795.2,77.3,17
59683,478006043,268.0,318.0,164.0,0,0.742,795.2,77.3,17
59684,478014043,252.0,302.0,150.0,0,0.73,795.2,77.3,17
59685,478022043,233.0,285.0,135.0,0,0.714,795.2,77.3,17
59686,478030043,212.0,268.0,119.0,0,0.694,795.2,77.3,17
59687,478038043,200.0,251.0,103.0,0,0.664,795.2,77.3,17
59688,478046043,183.0,235.0,87.0,0,0.632,795.2,77.3,17
59689,478054043,171.0,219.0,71.0,0,0.601,795.2,77.3,17
59690,478062043,161.0,205.0,55.0,0,0.569,795.2,77.3,17
59691,478070043,150.0,192.0,40.0,0,0.531,795.2,77.3,17
59692,478078043,144.0,180.0,26.0,0,0.496,795.2,77.3,17
59693,478086043,138.0,170.0,13.0,0,0.464,795.2,77.3,17
59694,478094043,133.0,161.0,1.0,0,0.465,795.2,77.3,17
59695,478102043,127.0,153.0,-9.0,0,0.461,795.2,77.3,17
59696,478110043,124.0,146.0,-19.0,0,0.479,795.2,77.3,17
59697,478118043,118.0,139.0,-27.0,0,0.471,795.2,77.3,17
59698,478126043,116.0,133.0,-35.0,0,0.486,795.2,77.3,17
59699,478134044,114.0,129.0,-42.0,0,0.488,795.2,77.3,17
59700,478142043,118.0,126.0,-47.0,0,0.474,795.2,77.3,17
59701,478150044,115.0,123.0,-52.0,0,0.484,795.2,77.3,17
59702,478158045,112.0,121.0,-56.0,0,0.48,795.2,77.3,17
59703,478166043,116.0,120.0,-58.0,0,0.461,795.2,77.3,17
59704,478174043,113.0,118.0,-61.0,0,0.478,795.2,77.3,17
59705,478182043,108.0,116.0,-63.0,0,0.47,795.2,77.3,17
59706,478190043,101.0,112.0,-66.0,0,0.487,795.2,77.3,17
59707,478198043,104.0,110.0,-68.0,0,0.48,795.2,77.3,17
59708,478206043,99.0,107.0,-70.0,0,0.483,795.2,77.3,17
59709,478214043,96.0,105.0,-72.0,0,0.486,795.2,77.3,17
59710,478222043,96.0,103.0,-74.0,0,0.49,795.2,77.3,17
59711,478230043,90.0,99.0,-77.0,0,0.506,795.2,77.3,17
59712,478238043,88.0,97.0,-79.0,0,0.498,795.2,77.3,17
59713,478246044,86.0,94.0,-81.0,0,0.5,795.2,77.3,17
59714,478254047,84.0,92.0,-83.0,0,0.503,795.2,77.3,17
59715,478262044,83.0,90.0,-85.0,0,0.506,795.2,77.3,17
59716,478270043,80.0,87.0,-87.0,0,0.509,795.2,77.3,17
59717,478278044,79.0,85.0,-88.0,0,0.498,795.2,77.3,17
59718,478286043,80.0,84.0,-90.0,0,0.512,795.2,77.3,17
59719,478294043,79.0,83.0,-91.0,0,0.501,795.2,77.3,17
59720,478302043,79.0,82.0,-92.0,0,0.502,795.2,77.3,17
59721,478310044,76.0,80.0,-93.0,0,0.503,795.2,77.3,17
59722,478318043,81.0,81.0,-93.0,1,0.491,795.2,77.3,17
59723,478326044,75.0,79.0,-94.0,0,0.503,795.2,77.3,17
59724,478334043,76.0,78.0,-94.0,1,0.491,795.2,77.3,17
59725,478342043,80.0,79.0,-94.0,0,0.49,795.2,77.3,17
59726,478350043,78.0,79.0,-94.0,0,0.489,795.2,77.3,17
59727,478358047,76.0,78.0,-94.0,0,0.488,795.2,77.3,17
59728,478366043,80.0,78.0,-94.0,0,0.487,795.2,77.3,17
59729,478374043,84.0,80.0,-93.0,0,0.495,795.2,77.3,17
59730,478382043,87.0,82.0,-91.0,0,0.502,795.2,77.3,17
59731,478390043,84.0,82.0,-90.0,0,0.487,795.2,77.3,17
59732,478398043,91.0,84.0,-89.0,0,0.484,795.2,77.3,17
59733,478406046,92.0,86.0,-87.0,0,0.492,795.2,77.3,17
59734,478414043,94.0,88.0,-85.0,0,0.487,795.2,77.3,17
59735,478422047,96.0,90.0,-83.0,0,0.482,795.2,77.3,17
59736,478430044,96.0,91.0,-80.0,0,0.487,795.2,77.3,17
59737,478438043,103.0,94.0,-78.0,0,0.47,795.2,77.3,17
59738,478446043,101.0,96.0,-76.0,0,0.465,795.2,77.3,17
59739,478454043,108.0,99.0,-73.0,0,0.471,795.2,77.3,17
59740,478462043,120.0,104.0,-70.0,0,0.465,795.2,77.3,17
59741,478470043,127.0,110.0,-65.0,0,0.481,795.2,77.3,17
59742,478478043,148.0,119.0,-60.0,0,0.47,795.2,77.3,17
59743,478486043,164.0,130.0,-52.0,0,0.494,795.2,77.3,17
59744,478494043,185.0,143.0,-43.0,0,0.489,795.2,77.3,17
59745,478502043,215.0,161.0,-32.0,0,0.492,795.2,77.3,17
59746,478510045,241.0,180.0,-18.0,0,0.499,795.2,77.3,17
59747,478518043,274.0,203.0,-2.0,0,0.517,795.2,77.3,17
59748,478526043,297.0,226.0,16.0,0,0.565,795.2,77.3,17
59749,478534043,324.0,250.0,36.0,0,0.616,795.2,77.3,17
59750,478542043,350.0,274.0,56.0,0,0.655,795.2,77.3,17
59751,478550043,373.0,298.0,78.0,0,0.708,795.2,77.3,17
