host_read_start_ns,host_read_end_ns,read_duration_ms,bytes_read,decoded_message_count,sample_count,first_sample_seq,last_sample_seq,first_sample_t_us,last_sample_t_us,serial_in_waiting,protocol_ok_frames,crc_errors,format_errors,resync_count,sample_seq_gaps
73487171000000,73487734000000,563.0,4096,70,69,57616,57684,461470043,462014045,54,70,0,0,0,0
73487734000000,73488281000000,547.0,4096,70,69,57685,57753,462022044,462566046,108,140,0,0,0,0
73488296000000,73488843000000,547.0,4096,71,71,57754,57824,462574043,463134043,90,211,0,0,0,0
73488859000000,73489406000000,547.0,4096,70,69,57825,57893,463142044,463686046,33,281,0,0,0,0
73489406000000,73489953000000,547.0,4096,70,69,57894,57962,463694043,464238043,134,351,0,0,0,0
73489968000000,73490515000000,547.0,4096,71,71,57963,58033,464246043,464806045,154,422,0,0,0,0
73490531000000,73491078000000,547.0,4096,70,69,58034,58102,464814043,465358043,40,492,0,0,0,0
73491078000000,73491625000000,547.0,4096,71,69,58103,58171,465366045,465910043,74,563,0,0,0,0
73491640000000,73492187000000,547.0,4096,70,70,58172,58241,465918043,466470046,133,633,0,0,0,0
73492203000000,73492734000000,531.0,4096,71,70,58242,58311,466478043,467030046,32,704,0,0,0,0
73492750000000,73493296000000,546.0,4096,70,69,58312,58380,467038043,467582043,79,774,0,0,0,0
73493312000000,73493859000000,547.0,4096,71,70,58381,58450,467590044,468142043,122,845,0,0,0,0
73493875000000,73494421000000,546.0,4096,70,70,58451,58520,468150046,468702043,76,915,0,0,0,0
73494437000000,73494984000000,547.0,4096,71,70,58521,58590,468710046,469262043,109,986,0,0,0,0
73495000000000,73495531000000,531.0,4096,70,69,58591,58659,469270046,469814043,66,1056,0,0,0,0
73495546000000,73496093000000,547.0,4096,71,71,58660,58730,469822044,470382046,168,1127,0,0,0,0
73496109000000,73496656000000,547.0,4096,71,69,58731,58799,470390045,470934046,93,1198,0,0,0,0
73496656000000,73497203000000,547.0,4096,70,69,58800,58868,470942043,471486043,187,1268,0,0,0,0
73497234000000,73497765000000,531.0,4096,71,71,58869,58939,471494044,472054045,173,1339,0,0,0,0
73497781000000,73498328000000,547.0,4096,71,70,58940,59009,472062046,472614046,108,1410,0,0,0,0
73498343000000,73498875000000,532.0,4096,70,69,59010,59078,472622045,473166043,85,1480,0,0,0,0
73498890000000,73499437000000,547.0,4096,71,70,59079,59148,473174046,473726043,169,1551,0,0,0,0
73499468000000,73500000000000,532.0,4096,70,70,59149,59218,473734043,474286043,82,1621,0,0,0,0
73500015000000,73500562000000,547.0,4096,71,70,59219,59288,474294043,474846044,92,1692,0,0,0,0
73500578000000,73501125000000,547.0,4096,70,69,59289,59357,474854046,475398047,104,1762,0,0,0,0
73501125000000,73501671000000,546.0,4096,71,69,59358,59426,475406043,475950043,136,1833,0,0,0,0
73501687000000,73502234000000,547.0,4096,71,71,59427,59497,475958043,476518043,100,1904,0,0,0,0
73502250000000,73502796000000,546.0,4096,71,70,59498,59567,476526043,477078044,95,1975,0,0,0,0
73502812000000,73503343000000,531.0,4096,70,69,59568,59636,477086043,477630046,132,2045,0,0,0,0
73503359000000,73503906000000,547.0,4096,70,70,59637,59706,477638044,478190043,94,2115,0,0,0,0
73503921000000,73504468000000,547.0,4096,71,70,59707,59776,478198043,478750043,72,2186,0,0,0,0
73504484000000,73505031000000,547.0,4096,71,70,59777,59846,478758043,479310043,176,2257,0,0,0,0
73505046000000,73505593000000,547.0,4096,71,71,59847,59917,479318044,479878045,199,2328,0,0,0,0
73505625000000,73506140000000,515.0,4096,70,69,59918,59986,479886043,480430043,126,2398,0,0,0,0
73506156000000,73506687000000,531.0,4096,71,68,59987,60054,480438043,480974043,97,2469,0,0,0,0
73506703000000,73507265000000,562.0,4096,71,71,60055,60125,480982046,481542045,236,2540,0,0,0,0
73507281000000,73507812000000,531.0,4096,70,69,60126,60194,481550046,482094043,125,2610,0,0,0,0
73507828000000,73508375000000,547.0,4096,71,70,60195,60264,482102046,482654044,165,2681,0,0,0,0
73508390000000,73508921000000,531.0,4096,70,69,60265,60333,482662044,483206043,185,2751,0,0,0,0
73508953000000,73509484000000,531.0,4096,71,71,60334,60404,483214043,483774044,100,2822,0,0,0,0
73509500000000,73510046000000,546.0,4096,71,70,60405,60474,483782043,484334043,142,2893,0,0,0,0
73510062000000,73510609000000,547.0,4096,70,69,60475,60543,484342047,484886047,179,2963,0,0,0,0
73510625000000,73511171000000,546.0,4096,70,70,60544,60613,484894043,485446046,108,3033,0,0,0,0
73511187000000,73511718000000,531.0,4096,71,69,60614,60682,485454043,485998043,143,3104,0,0,0,0
73511734000000,73512281000000,547.0,4096,71,70,60683,60752,486006044,486558043,262,3175,0,0,0,0
73512312000000,73512843000000,531.0,4096,70,70,60753,60822,486566043,487118043,129,3245,0,0,0,0
73512859000000,73513390000000,531.0,4096,71,70,60823,60892,487126043,487678043,122,3316,0,0,0,0
73513406000000,73513953000000,547.0,4096,70,69,60893,60961,487686043,488230043,110,3386,0,0,0,0
73513968000000,73514515000000,547.0,4096,71,70,60962,61031,488238044,488790046,138,3457,0,0,0,0
73514531000000,73515078000000,547.0,4096,71,71,61032,61102,488798043,489358045,165,3528,0,0,0,0
73515093000000,73515625000000,532.0,4096,70,69,61103,61171,489366046,489910043,113,3598,0,0,0,0
73515640000000,73516187000000,547.0,4096,71,70,61172,61241,489918043,490470047,323,3669,0,0,0,0
73516218000000,73516734000000,516.0,4096,70,69,61242,61310,490478043,491022043,402,3739,0,0,0,0
73516796000000,73517296000000,500.0,4096,71,70,61311,61380,491030043,491582043,214,3810,0,0,0,0
73517328000000,73517859000000,531.0,4096,71,70,61381,61450,491590043,492142043,127,3881,0,0,0,0
73517875000000,73518406000000,531.0,4096,70,69,61451,61519,492150045,492694046,125,3951,0,0,0,0
73518437000000,73518984000000,547.0,4096,71,71,61520,61590,492702045,493262043,257,4022,0,0,0,0
73519015000000,73519531000000,516.0,4096,71,70,61591,61660,493270043,493822043,261,4093,0,0,0,0
73519578000000,73520093000000,515.0,4096,70,69,61661,61729,493830043,494374043,78,4163,0,0,0,0
73520109000000,73520656000000,547.0,4096,70,70,61730,61799,494382044,494934043,135,4233,0,0,0,0
73520671000000,73521203000000,532.0,4096,71,70,61800,61869,494942043,495494043,180,4304,0,0,0,0
73521234000000,73521765000000,531.0,4096,71,69,61870,61938,495502043,496046047,209,4375,0,0,0,0
73521796000000,73522328000000,532.0,4096,70,70,61939,62008,496054045,496606043,165,4445,0,0,0,0
73522343000000,73522875000000,532.0,4096,71,70,62009,62078,496614046,497166044,262,4516,0,0,0,0
73522921000000,73523437000000,516.0,4096,70,69,62079,62147,497174045,497718045,201,4586,0,0,0,0
73523468000000,73523984000000,516.0,4096,70,69,62148,62216,497726043,498270043,162,4656,0,0,0,0
73524015000000,73524546000000,531.0,4096,71,71,62217,62287,498278046,498838043,138,4727,0,0,0,0
73524578000000,73525109000000,531.0,4096,70,69,62288,62356,498846043,499390043,227,4797,0,0,0,0
73525140000000,73525656000000,516.0,4096,70,69,62357,62425,499398044,499942046,218,4867,0,0,0,0
73525687000000,73526218000000,531.0,4096,71,71,62426,62496,499950043,500510043,182,4938,0,0,0,0
73526250000000,73526765000000,515.0,4096,72,69,62497,62565,500518045,501062045,90,5010,0,0,0,0
73526781000000,73527328000000,547.0,4096,70,69,62566,62634,501070043,501614044,164,5080,0,0,0,0
73527343000000,73527890000000,547.0,4096,70,70,62635,62704,501622043,502174043,132,5150,0,0,0,0
73527906000000,73528453000000,547.0,4096,71,70,62705,62774,502182043,502734047,169,5221,0,0,0,0
73528468000000,73529000000000,532.0,4096,70,69,62775,62843,502742046,503286046,141,5291,0,0,0,0
73529015000000,73529562000000,547.0,4096,70,70,62844,62913,503294044,503846043,132,5361,0,0,0,0
73529578000000,73530125000000,547.0,4096,71,70,62914,62983,503854043,504406043,200,5432,0,0,0,0
73530156000000,73530671000000,515.0,4096,70,69,62984,63052,504414043,504958043,101,5502,0,0,0,0
73530687000000,73531234000000,547.0,4096,70,69,63053,63121,504966043,505510043,105,5572,0,0,0,0
73531250000000,73531781000000,531.0,4096,71,70,63122,63191,505518043,506070047,177,5643,0,0,0,0
73531812000000,73532343000000,531.0,4096,70,69,63192,63260,506078043,506622046,126,5713,0,0,0,0
73532359000000,73532890000000,531.0,4096,71,70,63261,63330,506630043,507182045,258,5784,0,0,0,0
73532937000000,73533453000000,516.0,4096,70,70,63331,63400,507190043,507742043,173,5854,0,0,0,0
73533468000000,73534015000000,547.0,4096,70,69,63401,63469,507750045,508294043,98,5924,0,0,0,0
73534031000000,73534578000000,547.0,4096,71,70,63470,63539,508302043,508854045,139,5995,0,0,0,0
73534593000000,73535125000000,532.0,4096,71,70,63540,63609,508862043,509414043,111,6066,0,0,0,0
73535140000000,73535687000000,547.0,4096,70,70,63610,63679,509422043,509974043,191,6136,0,0,0,0
73535718000000,73536250000000,532.0,4096,71,70,63680,63749,509982043,510534043,195,6207,0,0,0,0
73536281000000,73536796000000,515.0,4096,71,69,63750,63818,510542043,511086043,241,6278,0,0,0,0
73536828000000,73537359000000,531.0,4096,70,70,63819,63888,511094043,511646044,762,6348,0,0,0,0
73537468000000,73537921000000,453.0,4096,70,69,63889,63957,511654043,512198043,100,6418,0,0,0,0
73537937000000,73538484000000,547.0,4096,71,70,63958,64027,512206043,512758043,203,6489,0,0,0,0
73538500000000,73539031000000,531.0,4096,70,70,64028,64097,512766043,513318043,120,6559,0,0,0,0
73539062000000,73539593000000,531.0,4096,71,70,64098,64167,513326043,513878047,142,6630,0,0,0,0
73539609000000,73540156000000,547.0,4096,70,69,64168,64236,513886043,514430043,121,6700,0,0,0,0
73540171000000,73540703000000,532.0,4096,71,70,64237,64306,514438045,514990043,124,6771,0,0,0,0
73540718000000,73541265000000,547.0,4096,70,70,64307,64376,514998043,515550044,181,6841,0,0,0,0
73541296000000,73541828000000,532.0,4096,72,70,64377,64446,515558044,516110044,138,6913,0,0,0,0
73541843000000,73542375000000,532.0,4096,70,69,64447,64515,516118047,516662045,189,6983,0,0,0,0
73542406000000,73542937000000,531.0,4096,70,70,64516,64585,516670043,517222043,126,7053,0,0,0,0
73542953000000,73543500000000,547.0,4096,71,70,64586,64655,517230043,517782043,128,7124,0,0,0,0
73543515000000,73544046000000,531.0,4096,70,69,64656,64724,517790044,518334043,117,7194,0,0,0,0
73544062000000,73544609000000,547.0,4096,71,70,64725,64794,518342046,518894044,96,7265,0,0,0,0
73544625000000,73545171000000,546.0,4096,69,69,64795,64863,518902043,519446043,119,7334,0,0,0,0
73545187000000,73545718000000,531.0,4096,71,70,64864,64933,519454043,520006044,130,7405,0,0,0,0
73545734000000,73546281000000,547.0,4096,70,69,64934,65002,520014043,520558043,105,7475,0,0,0,0
73546296000000,73546828000000,532.0,4096,71,69,65003,65071,520566046,521110043,128,7546,0,0,0,0
73546843000000,73547390000000,547.0,4096,71,70,65072,65141,521118045,521670043,139,7617,0,0,0,0
73547406000000,73547953000000,547.0,4096,71,70,65142,65211,521678043,522230043,144,7688,0,0,0,0
73547968000000,73548500000000,532.0,4096,70,70,65212,65281,522238045,522790043,84,7758,0,0,0,0
73548515000000,73549062000000,547.0,4096,70,69,65282,65350,522798045,523342044,139,7828,0,0,0,0
73549078000000,73549625000000,547.0,4096,71,70,65351,65420,523350043,523902043,122,7899,0,0,0,0
73549640000000,73550171000000,531.0,4096,71,70,65421,65490,523910043,524462043,194,7970,0,0,0,0
73550203000000,73550734000000,531.0,4096,69,69,65491,65559,524470043,525014043,270,8039,0,0,0,0
73550765000000,73551296000000,531.0,4096,71,70,65560,65629,525022043,525574043,211,8110,0,0,0,0
73551312000000,73551843000000,531.0,4096,71,69,65630,65698,525582043,526126046,132,8181,0,0,0,0
73551859000000,73552406000000,547.0,4096,70,70,65699,65768,526134045,526686043,87,8251,0,0,0,0
73552421000000,73552968000000,547.0,4096,71,70,65769,65838,526694043,527246043,230,8322,0,0,0,0
73553000000000,73553515000000,515.0,4096,70,69,65839,65907,527254043,527798043,125,8392,0,0,0,0
73553531000000,73554078000000,547.0,4096,70,70,65908,65977,527806043,528358043,120,8462,0,0,0,0
73554093000000,73554640000000,547.0,4096,71,70,65978,66047,528366046,528918043,277,8533,0,0,0,0
73554671000000,73555187000000,516.0,4096,70,69,66048,66116,528926045,529470046,211,8603,0,0,0,0
73555218000000,73555750000000,532.0,4096,71,70,66117,66186,529478043,530030043,213,8674,0,0,0,0
73555781000000,73556312000000,531.0,4096,70,70,66187,66256,530038043,530590043,154,8744,0,0,0,0
73556328000000,73556859000000,531.0,4096,71,69,66257,66325,530598043,531142048,205,8815,0,0,0,0
73556890000000,73557406000000,516.0,4096,70,69,66326,66394,531150043,531694043,757,8885,0,0,0,0
73557515000000,73557968000000,453.0,4096,71,71,66395,66465,531702043,532262043,150,8956,0,0,0,0
73558000000000,73558531000000,531.0,4096,70,69,66466,66534,532270043,532814046,134,9026,0,0,0,0
73558546000000,73559078000000,532.0,4096,70,69,66535,66603,532822043,533366044,109,9096,0,0,0,0
73559093000000,73559656000000,563.0,4096,71,71,66604,66674,533374044,533934043,146,9167,0,0,0,0
73559671000000,73560203000000,532.0,4096,70,69,66675,66743,533942045,534486043,135,9237,0,0,0,0
73560218000000,73560750000000,532.0,4096,70,69,66744,66812,534494043,535038045,256,9307,0,0,0,0
73560796000000,73561312000000,516.0,4096,71,70,66813,66882,535046043,535598045,112,9378,0,0,0,0
73561328000000,73561875000000,547.0,4096,71,70,66883,66952,535606043,536158046,130,9449,0,0,0,0
73561890000000,73562421000000,531.0,4096,70,69,66953,67021,536166044,536710043,156,9519,0,0,0,0
73562453000000,73562984000000,531.0,4096,70,70,67022,67091,536718043,537270043,129,9589,0,0,0,0
73563000000000,73563546000000,546.0,4096,71,70,67092,67161,537278043,537830045,140,9660,0,0,0,0
73563562000000,73564093000000,531.0,4096,70,69,67162,67230,537838043,538382043,130,9730,0,0,0,0
73564125000000,73564656000000,531.0,4096,70,69,67231,67299,538390044,538934043,138,9800,0,0,0,0
73564671000000,73565218000000,547.0,4096,70,70,67300,67369,538942046,539494044,121,9870,0,0,0,0
73565234000000,73565781000000,547.0,4096,71,70,67370,67439,539502047,540054043,152,9941,0,0,0,0
73565796000000,73566328000000,532.0,4096,71,69,67440,67508,540062043,540606043,156,10012,0,0,0,0
73566343000000,73566875000000,532.0,4096,71,69,67509,67577,540614043,541158044,194,10083,0,0,0,0
73566906000000,73567437000000,531.0,4096,70,70,67578,67647,541166043,541718043,166,10153,0,0,0,0
73567453000000,73568000000000,547.0,4096,71,70,67648,67717,541726043,542278043,131,10224,0,0,0,0
73568015000000,73568546000000,531.0,4096,70,69,67718,67786,542286046,542830043,126,10294,0,0,0,0
73568562000000,73569109000000,547.0,4096,71,71,67787,67857,542838043,543398043,172,10365,0,0,0,0
73569140000000,73569671000000,531.0,4096,70,69,67858,67926,543406043,543950043,245,10435,0,0,0,0
73569703000000,73570218000000,515.0,4096,71,70,67927,67996,543958043,544510043,102,10506,0,0,0,0
73570234000000,73570781000000,547.0,4096,70,70,67997,68066,544518046,545070043,126,10576,0,0,0,0
73570812000000,73571343000000,531.0,4096,71,69,68067,68135,545078043,545622045,165,10647,0,0,0,0
73571359000000,73571890000000,531.0,4096,71,70,68136,68205,545630043,546182043,239,10718,0,0,0,0
73571937000000,73572453000000,516.0,4096,70,69,68206,68274,546190045,546734043,130,10788,0,0,0,0
73572468000000,73573015000000,547.0,4096,71,71,68275,68345,546742043,547302047,233,10859,0,0,0,0
73573046000000,73573578000000,532.0,4096,70,69,68346,68414,547310043,547854043,171,10929,0,0,0,0
73573593000000,73574125000000,532.0,4096,71,70,68415,68484,547862043,548414046,148,11000,0,0,0,0
73574156000000,73574687000000,531.0,4096,70,70,68485,68554,548422045,548974043,129,11070,0,0,0,0
73574718000000,73575250000000,532.0,4096,70,69,68555,68623,548982045,549526044,94,11140,0,0,0,0
73575265000000,73575812000000,547.0,4096,71,71,68624,68694,549534043,550094043,169,11211,0,0,0,0
73575828000000,73576359000000,531.0,4096,71,69,68695,68763,550102043,550646043,128,11282,0,0,0,0
73576375000000,73576921000000,546.0,4096,70,69,68764,68832,550654043,551198043,138,11352,0,0,0,0
73576937000000,73577468000000,531.0,4096,71,70,68833,68902,551206043,551758043,781,11423,0,0,0,0
73577578000000,73578031000000,453.0,4096,70,69,68903,68971,551766044,552310043,157,11493,0,0,0,0
73578046000000,73578593000000,547.0,4096,70,70,68972,69041,552318043,552870044,139,11563,0,0,0,0
73578609000000,73579140000000,531.0,4096,71,70,69042,69111,552878043,553430043,130,11634,0,0,0,0
73579171000000,73579703000000,532.0,4096,71,70,69112,69181,553438043,553990043,113,11705,0,0,0,0
73579718000000,73580265000000,547.0,4096,70,70,69182,69251,553998043,554550043,245,11775,0,0,0,0
73580296000000,73580828000000,532.0,4096,70,69,69252,69320,554558044,555102043,165,11845,0,0,0,0
73580843000000,73581375000000,532.0,4096,71,69,69321,69389,555110047,555654044,135,11916,0,0,0,0
73581390000000,73581937000000,547.0,4096,71,71,69390,69460,555662043,556222043,134,11987,0,0,0,0
73581953000000,73582500000000,547.0,4096,70,69,69461,69529,556230045,556774045,189,12057,0,0,0,0
73582515000000,73583046000000,531.0,4096,71,70,69530,69599,556782043,557334044,144,12128,0,0,0,0
73583062000000,73583609000000,547.0,4096,70,70,69600,69669,557342046,557894045,145,12198,0,0,0,0
73583640000000,73584171000000,531.0,4096,71,70,69670,69739,557902043,558454045,277,12269,0,0,0,0
73584203000000,73584718000000,515.0,4096,70,69,69740,69808,558462043,559006043,218,12339,0,0,0,0
73584750000000,73585281000000,531.0,4096,70,69,69809,69877,559014045,559558047,153,12409,0,0,0,0
73585296000000,73585843000000,547.0,4096,71,71,69878,69948,559566044,560126043,251,12480,0,0,0,0
73585875000000,73586390000000,515.0,4096,71,68,69949,70016,560134043,560670044,132,12551,0,0,0,0
73586406000000,73586937000000,531.0,4096,70,69,70017,70085,560678043,561222046,239,12621,0,0,0,0
73586984000000,73587500000000,516.0,4096,71,71,70086,70156,561230043,561790043,214,12692,0,0,0,0
73587531000000,73588062000000,531.0,4096,70,69,70157,70225,561798047,562342046,252,12762,0,0,0,0
73588093000000,73588625000000,532.0,4096,71,70,70226,70295,562350045,562902043,114,12833,0,0,0,0
73588625000000,73589187000000,562.0,4096,70,70,70296,70365,562910043,563462046,294,12903,0,0,0,0
73589218000000,73589734000000,516.0,4096,71,70,70366,70435,563470043,564022047,155,12974,0,0,0,0
73589765000000,73590296000000,531.0,4096,70,69,70436,70504,564030045,564574043,90,13044,0,0,0,0
73590296000000,73590843000000,547.0,4096,71,70,70505,70574,564582046,565134043,164,13115,0,0,0,0
73590875000000,73591406000000,531.0,4096,71,70,70575,70644,565142045,565694043,226,13186,0,0,0,0
73591437000000,73591968000000,531.0,4096,70,69,70645,70713,565702045,566246043,100,13256,0,0,0,0
73591984000000,73592515000000,531.0,4096,71,70,70714,70783,566254047,566806043,200,13327,0,0,0,0
73592546000000,73593078000000,532.0,4096,70,70,70784,70853,566814046,567366043,157,13397,0,0,0,0
73593109000000,73593640000000,531.0,4096,71,70,70854,70923,567374043,567926043,208,13468,0,0,0,0
73593671000000,73594203000000,532.0,4096,70,69,70924,70992,567934043,568478043,127,13538,0,0,0,0
73594218000000,73594750000000,532.0,4096,71,70,70993,71062,568486045,569038043,130,13609,0,0,0,0
73594765000000,73595312000000,547.0,4096,70,70,71063,71132,569046043,569598043,120,13679,0,0,0,0
73595328000000,73595875000000,547.0,4096,70,69,71133,71201,569606043,570150043,176,13749,0,0,0,0
73595890000000,73596421000000,531.0,4096,72,70,71202,71271,570158044,570710043,96,13821,0,0,0,0
73596437000000,73596984000000,547.0,4096,70,70,71272,71341,570718043,571270046,173,13891,0,0,0,0
73597015000000,73597546000000,531.0,4096,71,70,71342,71411,571278043,571830044,895,13962,0,0,0,0
73597671000000,73598093000000,422.0,4096,70,69,71412,71480,571838044,572382044,124,14032,0,0,0,0
73598125000000,73598671000000,546.0,4096,71,71,71481,71551,572390046,572950045,233,14103,0,0,0,0
73598687000000,73599218000000,531.0,4096,70,69,71552,71620,572958046,573502043,140,14173,0,0,0,0
73599234000000,73599781000000,547.0,4096,71,70,71621,71690,573510045,574062043,278,14244,0,0,0,0
73599812000000,73600343000000,531.0,4096,71,70,71691,71760,574070044,574622043,233,14315,0,0,0,0
73600375000000,73600890000000,515.0,4096,70,70,71761,71830,574630045,575182043,113,14385,0,0,0,0
73600906000000,73601453000000,547.0,4096,70,68,71831,71898,575190044,575726043,218,14455,0,0,0,0
73601468000000,73602000000000,532.0,4096,71,70,71899,71968,575734043,576286043,147,14526,0,0,0,0
73602031000000,73602562000000,531.0,4096,70,70,71969,72038,576294047,576846043,172,14596,0,0,0,0
73602593000000,73603125000000,532.0,4096,70,69,72039,72107,576854046,577398043,125,14666,0,0,0,0
73603140000000,73603671000000,531.0,4096,71,70,72108,72177,577406043,577958043,138,14737,0,0,0,0
73603703000000,73604234000000,531.0,4096,71,71,72178,72248,577966044,578526043,165,14808,0,0,0,0
73604265000000,73604796000000,531.0,4096,70,69,72249,72317,578534043,579078044,176,14878,0,0,0,0
73604828000000,73605343000000,515.0,4096,70,69,72318,72386,579086043,579630043,121,14948,0,0,0,0
73605375000000,73605906000000,531.0,4096,71,70,72387,72456,579638046,580190045,145,15019,0,0,0,0
73605921000000,73606468000000,547.0,4096,71,69,72457,72525,580198043,580742046,126,15090,0,0,0,0
73606484000000,73607015000000,531.0,4096,71,70,72526,72595,580750043,581302045,142,15161,0,0,0,0
73607046000000,73607578000000,532.0,4096,70,69,72596,72664,581310045,581854043,151,15231,0,0,0,0
73607593000000,73608140000000,547.0,4096,71,71,72665,72735,581862047,582422043,229,15302,0,0,0,0
73608171000000,73608687000000,516.0,4096,70,69,72736,72804,582430043,582974043,166,15372,0,0,0,0
73608718000000,73609250000000,532.0,4096,71,70,72805,72874,582982044,583534043,264,15443,0,0,0,0
73609281000000,73609812000000,531.0,4096,70,70,72875,72944,583542043,584094043,206,15513,0,0,0,0
73609843000000,73610375000000,532.0,4096,71,70,72945,73014,584102043,584654044,252,15584,0,0,0,0
73610406000000,73610921000000,515.0,4096,70,69,73015,73083,584662046,585206043,218,15654,0,0,0,0
73610953000000,73611484000000,531.0,4096,71,70,73084,73153,585214043,585766047,184,15725,0,0,0,0
73611515000000,73612046000000,531.0,4096,71,70,73154,73223,585774045,586326046,148,15796,0,0,0,0
73612062000000,73612593000000,531.0,4096,70,69,73224,73292,586334045,586878043,149,15866,0,0,0,0
73612609000000,73613156000000,547.0,4096,70,69,73293,73361,586886043,587430046,135,15936,0,0,0,0
73613171000000,73613718000000,547.0,4096,71,71,73362,73432,587438043,587998045,103,16007,0,0,0,0
73613734000000,73614265000000,531.0,4096,70,69,73433,73501,588006043,588550045,306,16077,0,0,0,0
73614312000000,73614828000000,516.0,4096,70,69,73502,73570,588558043,589102044,184,16147,0,0,0,0
73614843000000,73615375000000,532.0,4096,71,70,73571,73640,589110044,589662043,142,16218,0,0,0,0
73615406000000,73615937000000,531.0,4096,70,70,73641,73710,589670043,590222043,177,16288,0,0,0,0
73615968000000,73616500000000,532.0,4096,71,69,73711,73779,590230044,590774043,127,16359,0,0,0,0
73616515000000,73617046000000,531.0,4096,71,70,73780,73849,590782043,591334045,132,16430,0,0,0,0
73617062000000,73617609000000,547.0,4096,70,70,73850,73919,591342043,591894044,1083,16500,0,0,0,0
73617765000000,73618171000000,406.0,4096,71,70,73920,73989,591902043,592454043,138,16571,0,0,0,0
73618187000000,73618718000000,531.0,4096,70,69,73990,74058,592462043,593006043,146,16641,0,0,0,0
73618734000000,73619296000000,562.0,4096,71,71,74059,74129,593014043,593574043,284,16712,0,0,0,0
73619328000000,73619843000000,515.0,4096,70,69,74130,74198,593582043,594126043,167,16782,0,0,0,0
73619875000000,73620390000000,515.0,4096,70,69,74199,74267,594134043,594678045,238,16852,0,0,0,0
73620437000000,73620953000000,516.0,4096,71,70,74268,74337,594686045,595238046,240,16923,0,0,0,0
73620984000000,73621515000000,531.0,4096,71,70,74338,74407,595246043,595798043,118,16994,0,0,0,0
73621531000000,73622062000000,531.0,4096,70,69,74408,74476,595806043,596350043,180,17064,0,0,0,0
73622093000000,73622625000000,532.0,4096,71,70,74477,74546,596358044,596910044,253,17135,0,0,0,0
73622656000000,73623187000000,531.0,4096,70,70,74547,74616,596918044,597470043,114,17205,0,0,0,0
73623203000000,73623750000000,547.0,4096,71,70,74617,74686,597478043,598030046,170,17276,0,0,0,0
73623765000000,73624296000000,531.0,4096,70,69,74687,74755,598038043,598582047,125,17346,0,0,0,0
73624328000000,73624859000000,531.0,4096,70,70,74756,74825,598590046,599142046,189,17416,0,0,0,0
73624890000000,73625421000000,531.0,4096,71,70,74826,74895,599150043,599702043,190,17487,0,0,0,0
73625437000000,73625984000000,547.0,4096,71,70,74896,74965,599710043,600262044,169,17558,0,0,0,0
73626000000000,73626515000000,515.0,4096,71,68,74966,75033,600270044,600806043,159,17629,0,0,0,0
73626546000000,73627078000000,532.0,4096,70,70,75034,75103,600814044,601366043,146,17699,0,0,0,0
73627109000000,73627640000000,531.0,4096,71,70,75104,75173,601374043,601926043,188,17770,0,0,0,0
73627671000000,73628203000000,532.0,4096,70,69,75174,75242,601934044,602478046,280,17840,0,0,0,0
73628234000000,73628750000000,516.0,4096,70,70,75243,75312,602486043,603038045,299,17910,0,0,0,0
73628796000000,73629312000000,516.0,4096,71,70,75313,75382,603046043,603598045,101,17981,0,0,0,0
73629328000000,73629875000000,547.0,4096,71,70,75383,75452,603606043,604158046,138,18052,0,0,0,0
73629890000000,73630437000000,547.0,4096,70,70,75453,75522,604166043,604718043,148,18122,0,0,0,0
73630453000000,73631000000000,547.0,4096,71,70,75523,75592,604726043,605278044,194,18193,0,0,0,0
73631015000000,73631546000000,531.0,4096,71,69,75593,75661,605286043,605830044,93,18264,0,0,0,0
73631562000000,73632093000000,531.0,4096,70,69,75662,75730,605838047,606382046,137,18334,0,0,0,0
73632125000000,73632656000000,531.0,4096,70,70,75731,75800,606390043,606942043,183,18404,0,0,0,0
73632687000000,73633218000000,531.0,4096,71,70,75801,75870,606950043,607502046,167,18475,0,0,0,0
73633250000000,73633765000000,515.0,4096,70,69,75871,75939,607510043,608054043,175,18545,0,0,0,0
73633796000000,73634343000000,547.0,4096,71,71,75940,76010,608062045,608622043,262,18616,0,0,0,0
73634375000000,73634890000000,515.0,4096,70,69,76011,76079,608630043,609174043,252,18686,0,0,0,0
73634921000000,73635453000000,532.0,4096,70,69,76080,76148,609182044,609726047,120,18756,0,0,0,0
73635468000000,73636015000000,547.0,4096,71,71,76149,76219,609734043,610294043,159,18827,0,0,0,0
73636031000000,73636562000000,531.0,4096,71,69,76220,76288,610302043,610846044,138,18898,0,0,0,0
73636578000000,73637125000000,547.0,4096,70,69,76289,76357,610854043,611398046,158,18968,0,0,0,0
73637140000000,73637671000000,531.0,4096,71,70,76358,76427,611406043,611958043,953,19039,0,0,0,0
73637812000000,73638234000000,422.0,4096,70,70,76428,76497,611966044,612518043,106,19109,0,0,0,0
73638250000000,73638796000000,546.0,4096,70,69,76498,76566,612526045,613070047,208,19179,0,0,0,0
73638812000000,73639343000000,531.0,4096,71,70,76567,76636,613078044,613630043,154,19250,0,0,0,0
73639375000000,73639906000000,531.0,4096,70,70,76637,76706,613638043,614190044,131,19320,0,0,0,0
73639921000000,73640468000000,547.0,4096,71,70,76707,76776,614198043,614750046,159,19391,0,0,0,0
73640484000000,73641015000000,531.0,4096,70,69,76777,76845,614758045,615302043,136,19461,0,0,0,0
73641046000000,73641578000000,532.0,4096,71,70,76846,76915,615310045,615862043,356,19532,0,0,0,0
73641625000000,73642140000000,515.0,4096,71,70,76916,76985,615870044,616422043,250,19603,0,0,0,0
73642171000000,73642687000000,516.0,4096,70,69,76986,77054,616430046,616974045,210,19673,0,0,0,0
73642718000000,73643250000000,532.0,4096,71,70,77055,77124,616982045,617534043,275,19744,0,0,0,0
73643281000000,73643812000000,531.0,4096,70,70,77125,77194,617542043,618094046,187,19814,0,0,0,0
73643828000000,73644375000000,547.0,4096,71,70,77195,77264,618102043,618654043,188,19885,0,0,0,0
73644390000000,73644921000000,531.0,4096,70,69,77265,77333,618662047,619206043,156,19955,0,0,0,0
73644953000000,73645484000000,531.0,4096,71,71,77334,77404,619214045,619774045,171,20026,0,0,0,0
73645515000000,73646046000000,531.0,4096,70,69,77405,77473,619782047,620326043,100,20096,0,0,0,0
73646062000000,73646593000000,531.0,4096,72,69,77474,77542,620334043,620878046,115,20168,0,0,0,0
73646609000000,73647156000000,547.0,4096,70,70,77543,77612,620886043,621438043,161,20238,0,0,0,0
73647171000000,73647703000000,532.0,4096,70,69,77613,77681,621446043,621990043,150,20308,0,0,0,0
73647734000000,73648265000000,531.0,4096,70,69,77682,77750,621998045,622542045,209,20378,0,0,0,0
73648296000000,73648828000000,532.0,4096,71,71,77751,77821,622550043,623110044,164,20449,0,0,0,0
73648843000000,73649375000000,532.0,4096,70,69,77822,77890,623118046,623662043,158,20519,0,0,0,0
73649406000000,73649937000000,531.0,4096,70,70,77891,77960,623670043,624222043,149,20589,0,0,0,0
73649953000000,73650500000000,547.0,4096,71,70,77961,78030,624230046,624782044,144,20660,0,0,0,0
73650515000000,73651046000000,531.0,4096,69,69,78031,78099,624790044,625334043,219,20729,0,0,0,0
73651078000000,73651609000000,531.0,4096,71,69,78100,78168,625342044,625886046,184,20800,0,0,0,0
73651625000000,73652156000000,531.0,4096,71,70,78169,78238,625894043,626446046,190,20871,0,0,0,0
73652187000000,73652718000000,531.0,4096,70,70,78239,78308,626454043,627006044,164,20941,0,0,0,0
73652750000000,73653281000000,531.0,4096,70,69,78309,78377,627014043,627558046,250,21011,0,0,0,0
73653312000000,73653828000000,516.0,4096,70,69,78378,78446,627566044,628110044,122,21081,0,0,0,0
73653843000000,73654390000000,547.0,4096,71,70,78447,78516,628118047,628670046,154,21152,0,0,0,0
73654406000000,73654953000000,547.0,4096,70,70,78517,78586,628678043,629230044,284,21222,0,0,0,0
73654984000000,73655500000000,516.0,4096,71,70,78587,78656,629238043,629790046,161,21293,0,0,0,0
73655531000000,73656062000000,531.0,4096,70,69,78657,78725,629798045,630342043,144,21363,0,0,0,0
73656078000000,73656625000000,547.0,4096,71,70,78726,78795,630350047,630902043,211,21434,0,0,0,0
73656640000000,73657171000000,531.0,4096,71,70,78796,78865,630910043,631462043,173,21505,0,0,0,0
73657203000000,73657734000000,531.0,4096,70,69,78866,78934,631470046,632014044,192,21575,0,0,0,0
73657765000000,73658296000000,531.0,4096,70,70,78935,79004,632022043,632574045,1061,21645,0,0,0,0
73658437000000,73658843000000,406.0,4096,71,70,79005,79074,632582043,633134043,100,21716,0,0,0,0
73658859000000,73659406000000,547.0,4096,70,69,79075,79143,633142043,633686043,153,21786,0,0,0,0
73659421000000,73659968000000,547.0,4096,71,71,79144,79214,633694043,634254043,193,21857,0,0,0,0
73659984000000,73660531000000,547.0,4096,70,69,79215,79283,634262043,634806043,216,21927,0,0,0,0
73660562000000,73661078000000,516.0,4096,71,70,79284,79353,634814044,635366043,129,21998,0,0,0,0
73661093000000,73661640000000,547.0,4096,71,69,79354,79422,635374047,635918043,147,22069,0,0,0,0
73661656000000,73662203000000,547.0,4096,70,70,79423,79492,635926043,636478043,179,22139,0,0,0,0
73662218000000,73662750000000,532.0,4096,71,70,79493,79562,636486044,637038047,222,22210,0,0,0,0
73662781000000,73663312000000,531.0,4096,70,69,79563,79631,637046044,637590044,110,22280,0,0,0,0
73663328000000,73663875000000,547.0,4096,71,71,79632,79702,637598043,638158043,172,22351,0,0,0,0
73663890000000,73664421000000,531.0,4096,70,69,79703,79771,638166046,638710043,173,22421,0,0,0,0
73664453000000,73664984000000,531.0,4096,70,69,79772,79840,638718043,639262045,129,22491,0,0,0,0
73665000000000,73665531000000,531.0,4096,71,70,79841,79910,639270043,639822046,168,22562,0,0,0,0
73665562000000,73666093000000,531.0,4096,70,70,79911,79980,639830043,640382043,171,22632,0,0,0,0
73666125000000,73666640000000,515.0,4096,71,68,79981,80048,640390043,640926043,177,22703,0,0,0,0
73666671000000,73667203000000,532.0,4096,70,69,80049,80117,640934043,641478047,134,22773,0,0,0,0
73667218000000,73667750000000,532.0,4096,70,70,80118,80187,641486043,642038044,276,22843,0,0,0,0
73667796000000,73668312000000,516.0,4096,71,70,80188,80257,642046044,642598045,150,22914,0,0,0,0
73668343000000,73668859000000,516.0,4096,70,69,80258,80326,642606046,643150043,213,22984,0,0,0,0
73668890000000,73669437000000,547.0,4096,70,70,80327,80396,643158043,643710045,197,23054,0,0,0,0
73669453000000,73669984000000,531.0,4096,70,69,80397,80465,643718043,644262044,121,23124,0,0,0,0
73670000000000,73670531000000,531.0,4096,71,70,80466,80535,644270045,644822045,169,23195,0,0,0,0
73670562000000,73671093000000,531.0,4096,70,70,80536,80605,644830043,645382045,217,23265,0,0,0,0
73671125000000,73671656000000,531.0,4096,71,69,80606,80674,645390043,645934046,134,23336,0,0,0,0
73671671000000,73672203000000,532.0,4096,70,69,80675,80743,645942043,646486044,255,23406,0,0,0,0
73672234000000,73672765000000,531.0,4096,71,70,80744,80813,646494045,647046047,374,23477,0,0,0,0
73672812000000,73673328000000,516.0,4096,70,70,80814,80883,647054043,647606043,227,23547,0,0,0,0
73673359000000,73673875000000,516.0,4096,71,70,80884,80953,647614043,648166043,204,23618,0,0,0,0
73673906000000,73674437000000,531.0,4096,70,69,80954,81022,648174043,648718045,185,23688,0,0,0,0
73674453000000,73675000000000,547.0,4096,70,70,81023,81092,648726043,649278046,316,23758,0,0,0,0
73675031000000,73675562000000,531.0,4096,71,70,81093,81162,649286043,649838045,215,23829,0,0,0,0
73675578000000,73676109000000,531.0,4096,70,69,81163,81231,649846043,650390043,139,23899,0,0,0,0
73676125000000,73676671000000,546.0,4096,72,70,81232,81301,650398044,650950043,175,23971,0,0,0,0
73676687000000,73677218000000,531.0,4096,70,70,81302,81371,650958043,651510045,151,24041,0,0,0,0
73677250000000,73677781000000,531.0,4096,70,69,81372,81440,651518047,652062046,220,24111,0,0,0,0
73677812000000,73678343000000,531.0,4096,71,70,81441,81510,652070047,652622050,250,24182,0,0,0,0
73678375000000,73678906000000,531.0,4096,70,70,81511,81580,652630044,653182046,1004,24252,0,0,0,0
73679046000000,73679453000000,407.0,4096,71,70,81581,81650,653190043,653742044,164,24323,0,0,0,0
73679484000000,73680015000000,531.0,4096,70,69,81651,81719,653750043,654294043,140,24393,0,0,0,0
73680031000000,73680578000000,547.0,4096,71,71,81720,81790,654302045,654862043,167,24464,0,0,0,0
73680593000000,73681140000000,547.0,4096,70,69,81791,81859,654870043,655414043,230,24534,0,0,0,0
73681171000000,73681687000000,516.0,4096,71,69,81860,81928,655422043,655966048,177,24605,0,0,0,0
73681703000000,73682250000000,547.0,4096,71,70,81929,81998,655974043,656526043,169,24676,0,0,0,0
73682265000000,73682812000000,547.0,4096,70,70,81999,82068,656534043,657086043,224,24746,0,0,0,0
73682843000000,73683359000000,516.0,4096,70,69,82069,82137,657094044,657638045,235,24816,0,0,0,0
73683390000000,73683921000000,531.0,4096,71,70,82138,82207,657646045,658198044,153,24887,0,0,0,0
73683937000000,73684484000000,547.0,4096,71,71,82208,82278,658206043,658766045,230,24958,0,0,0,0
73684515000000,73685031000000,516.0,4096,70,69,82279,82347,658774043,659318043,182,25028,0,0,0,0
73685062000000,73685593000000,531.0,4096,70,69,82348,82416,659326046,659870043,155,25098,0,0,0,0
73685609000000,73686156000000,547.0,4096,71,71,82417,82487,659878043,660438043,123,25169,0,0,0,0
73686171000000,73686703000000,532.0,4096,71,68,82488,82555,660446043,660982043,181,25240,0,0,0,0
73686734000000,73687265000000,531.0,4096,71,70,82556,82625,660990044,661542045,249,25311,0,0,0,0
73687296000000,73687812000000,516.0,4096,70,69,82626,82694,661550047,662094044,223,25381,0,0,0,0
73687843000000,73688375000000,532.0,4096,71,71,82695,82765,662102043,662662043,193,25452,0,0,0,0
73688406000000,73688937000000,531.0,4096,70,69,82766,82834,662670043,663214045,224,25522,0,0,0,0
73688968000000,73689484000000,516.0,4096,71,70,82835,82904,663222043,663774046,198,25593,0,0,0,0
73689515000000,73690046000000,531.0,4096,70,70,82905,82974,663782045,664334044,177,25663,0,0,0,0
73690078000000,73690609000000,531.0,4096,71,70,82975,83044,664342043,664894043,152,25734,0,0,0,0
73690625000000,73691171000000,546.0,4096,70,69,83045,83113,664902045,665446043,218,25804,0,0,0,0
73691187000000,73691718000000,531.0,4096,71,69,83114,83182,665454043,665998043,169,25875,0,0,0,0
73691734000000,73692281000000,547.0,4096,71,71,83183,83253,666006043,666566043,259,25946,0,0,0,0
73692312000000,73692843000000,531.0,4096,70,69,83254,83322,666574044,667118046,243,26016,0,0,0,0
73692875000000,73693390000000,515.0,4096,71,70,83323,83392,667126045,667678046,164,26087,0,0,0,0
73693421000000,73693953000000,532.0,4096,70,70,83393,83462,667686043,668238043,209,26157,0,0,0,0
73693984000000,73694515000000,531.0,4096,71,70,83463,83532,668246043,668798043,220,26228,0,0,0,0
73694546000000,73695062000000,516.0,4096,70,69,83533,83601,668806043,669350043,169,26298,0,0,0,0
73695093000000,73695625000000,532.0,4096,70,70,83602,83671,669358045,669910044,185,26368,0,0,0,0
73695656000000,73696187000000,531.0,4096,71,70,83672,83741,669918043,670470043,173,26439,0,0,0,0
73696218000000,73696734000000,516.0,4096,71,69,83742,83810,670478043,671022046,125,26510,0,0,0,0
73696765000000,73697296000000,531.0,4096,71,70,83811,83880,671030043,671582043,281,26581,0,0,0,0
73697328000000,73697859000000,531.0,4096,70,70,83881,83950,671590043,672142043,276,26651,0,0,0,0
73697890000000,73698421000000,531.0,4096,70,69,83951,84019,672150044,672694043,154,26721,0,0,0,0
73698437000000,73698968000000,531.0,4096,71,70,84020,84089,672702045,673254046,1079,26792,0,0,0,0
73699125000000,73699531000000,406.0,4096,70,70,84090,84159,673262043,673814043,247,26862,0,0,0,0
73699562000000,73700093000000,531.0,4096,71,70,84160,84229,673822044,674374043,203,26933,0,0,0,0
73700125000000,73700640000000,515.0,4096,70,69,84230,84298,674382046,674926043,197,27003,0,0,0,0
73700671000000,73701203000000,532.0,4096,71,71,84299,84369,674934043,675494044,141,27074,0,0,0,0
73701234000000,73701765000000,531.0,4096,71,69,84370,84438,675502044,676046047,393,27145,0,0,0,0
73701812000000,73702312000000,500.0,4096,70,69,84439,84507,676054044,676598043,189,27215,0,0,0,0
73702343000000,73702875000000,532.0,4096,71,70,84508,84577,676606045,677158043,248,27286,0,0,0,0
73702906000000,73703437000000,531.0,4096,70,70,84578,84647,677166044,677718043,151,27356,0,0,0,0
73703453000000,73704000000000,547.0,4096,71,70,84648,84717,677726044,678278045,205,27427,0,0,0,0
73704015000000,73704546000000,531.0,4096,70,69,84718,84786,678286045,678830047,233,27497,0,0,0,0
73704578000000,73705109000000,531.0,4096,71,71,84787,84857,678838043,679398043,216,27568,0,0,0,0
73705140000000,73705671000000,531.0,4096,71,70,84858,84927,679406043,679958043,140,27639,0,0,0,0
73705687000000,73706234000000,547.0,4096,70,69,84928,84996,679966043,680510044,257,27709,0,0,0,0
73706265000000,73706781000000,516.0,4096,71,69,84997,85065,680518043,681062043,351,27780,0,0,0,0
73706828000000,73707343000000,515.0,4096,71,70,85066,85135,681070043,681622043,269,27851,0,0,0,0
73707375000000,73707890000000,515.0,4096,71,70,85136,85205,681630043,682182044,114,27922,0,0,0,0
73707906000000,73708453000000,547.0,4096,70,69,85206,85274,682190046,682734045,263,27992,0,0,0,0
73708484000000,73709015000000,531.0,4096,70,70,85275,85344,682742043,683294043,197,28062,0,0,0,0
73709031000000,73709578000000,547.0,4096,71,70,85345,85414,683302043,683854044,191,28133,0,0,0,0
73709593000000,73710125000000,532.0,4096,70,69,85415,85483,683862043,684406045,125,28203,0,0,0,0
73710140000000,73710687000000,547.0,4096,71,71,85484,85554,684414046,684974043,171,28274,0,0,0,0
73710718000000,73711234000000,516.0,4096,70,69,85555,85623,684982047,685526043,144,28344,0,0,0,0
73711265000000,73711796000000,531.0,4096,71,69,85624,85692,685534043,686078044,156,28415,0,0,0,0
73711828000000,73712359000000,531.0,4096,71,71,85693,85763,686086044,686646043,206,28486,0,0,0,0
73712390000000,73712921000000,531.0,4096,70,69,85764,85832,686654043,687198043,189,28556,0,0,0,0
73712937000000,73713468000000,531.0,4096,70,69,85833,85901,687206043,687750043,250,28626,0,0,0,0
73713500000000,73714031000000,531.0,4096,71,71,85902,85972,687758043,688318047,322,28697,0,0,0,0
73714078000000,73714593000000,515.0,4096,70,69,85973,86041,688326043,688870043,128,28767,0,0,0,0
73714609000000,73715140000000,531.0,4096,71,70,86042,86111,688878044,689430043,214,28838,0,0,0,0
73715171000000,73715703000000,532.0,4096,70,69,86112,86180,689438046,689982046,191,28908,0,0,0,0
73715718000000,73716265000000,547.0,4096,70,70,86181,86250,689990043,690542046,267,28978,0,0,0,0
73716296000000,73716812000000,516.0,4096,71,69,86251,86319,690550044,691094043,158,29049,0,0,0,0
73716843000000,73717375000000,532.0,4096,72,71,86320,86390,691102043,691662043,266,29121,0,0,0,0
73717406000000,73717937000000,531.0,4096,70,70,86391,86460,691670043,692222046,267,29191,0,0,0,0
73717984000000,73718500000000,516.0,4096,71,70,86461,86530,692230043,692782044,231,29262,0,0,0,0
73718531000000,73719046000000,515.0,4096,70,69,86531,86599,692790043,693334043,115,29332,0,0,0,0
73719078000000,73719625000000,547.0,4096,71,71,86600,86670,693342044,693902044,1189,29403,0,0,0,0
73719781000000,73720171000000,390.0,4096,71,70,86671,86740,693910044,694462046,192,29474,0,0,0,0
73720203000000,73720734000000,531.0,4096,70,69,86741,86809,694470043,695014044,162,29544,0,0,0,0
73720750000000,73721296000000,546.0,4096,71,70,86810,86879,695022045,695574043,298,29615,0,0,0,0
73721328000000,73721843000000,515.0,4096,71,70,86880,86949,695582045,696134043,231,29686,0,0,0,0
73721875000000,73722406000000,531.0,4096,70,69,86950,87018,696142043,696686043,227,29756,0,0,0,0
73722437000000,73722968000000,531.0,4096,71,70,87019,87088,696694043,697246046,156,29827,0,0,0,0
73722984000000,73723531000000,547.0,4096,70,70,87089,87158,697254043,697806043,196,29897,0,0,0,0
73723546000000,73724078000000,532.0,4096,71,70,87159,87228,697814043,698366045,192,29968,0,0,0,0
73724109000000,73724640000000,531.0,4096,70,69,87229,87297,698374043,698918043,185,30038,0,0,0,0
73724656000000,73725187000000,531.0,4096,71,70,87298,87367,698926044,699478043,186,30109,0,0,0,0
73725218000000,73725765000000,547.0,4096,71,71,87368,87438,699486044,700046045,323,30180,0,0,0,0
73725812000000,73726312000000,500.0,4096,70,69,87439,87507,700054043,700598043,232,30250,0,0,0,0
73726343000000,73726859000000,516.0,4096,71,68,87508,87575,700606045,701142045,152,30321,0,0,0,0
73726890000000,73727421000000,531.0,4096,71,71,87576,87646,701150043,701710043,215,30392,0,0,0,0
73727468000000,73727984000000,516.0,4096,71,70,87647,87716,701718046,702270043,181,30463,0,0,0,0
73728015000000,73728546000000,531.0,4096,71,70,87717,87786,702278045,702830047,185,30534,0,0,0,0
73728578000000,73729109000000,531.0,4096,71,70,87787,87856,702838043,703390043,210,30605,0,0,0,0
73729140000000,73729671000000,531.0,4096,70,70,87857,87926,703398045,703950043,224,30675,0,0,0,0
73729703000000,73730218000000,515.0,4096,71,70,87927,87996,703958047,704510044,198,30746,0,0,0,0
73730250000000,73730796000000,546.0,4096,71,70,87997,88066,704518043,705070043,299,30817,0,0,0,0
73730828000000,73731359000000,531.0,4096,72,71,88067,88137,705078046,705638043,200,30889,0,0,0,0
73731375000000,73731921000000,546.0,4096,71,70,88138,88207,705646046,706198047,184,30960,0,0,0,0
73731937000000,73732484000000,547.0,4096,71,70,88208,88277,706206043,706758044,146,31031,0,0,0,0
73732500000000,73733046000000,546.0,4096,71,71,88278,88348,706766043,707326044,276,31102,0,0,0,0
73733078000000,73733609000000,531.0,4096,71,70,88349,88418,707334044,707886043,279,31173,0,0,0,0
73733640000000,73734156000000,516.0,4096,71,70,88419,88488,707894043,708446043,216,31244,0,0,0,0
73734187000000,73734718000000,531.0,4096,71,70,88489,88558,708454044,709006043,172,31315,0,0,0,0
73734750000000,73735296000000,546.0,4096,70,70,88559,88628,709014046,709566043,338,31385,0,0,0,0
73735328000000,73735843000000,515.0,4096,71,70,88629,88698,709574043,710126043,257,31456,0,0,0,0
73735875000000,73736406000000,531.0,4096,72,70,88699,88768,710134043,710686044,252,31528,0,0,0,0
73736437000000,73736968000000,531.0,4096,70,70,88769,88838,710694043,711246043,158,31598,0,0,0,0
73736984000000,73737531000000,547.0,4096,71,70,88839,88908,711254043,711806043,261,31669,0,0,0,0
73737562000000,73738078000000,516.0,4096,70,69,88909,88977,711814044,712358047,212,31739,0,0,0,0
73738109000000,73738640000000,531.0,4096,71,70,88978,89047,712366043,712918043,220,31810,0,0,0,0
73738656000000,73739203000000,547.0,4096,70,70,89048,89117,712926047,713478043,121,31880,0,0,0,0
73739218000000,73739750000000,532.0,4096,71,70,89118,89187,713486043,714038046,1310,31951,0,0,0,0
73739937000000,73740312000000,375.0,4096,70,69,89188,89256,714046043,714590044,177,32021,0,0,0,0
73740328000000,73740875000000,547.0,4096,71,71,89257,89327,714598046,715158044,198,32092,0,0,0,0
73740906000000,73741421000000,515.0,4096,71,69,89328,89396,715166043,715710043,126,32163,0,0,0,0
73741437000000,73741984000000,547.0,4096,71,70,89397,89466,715718043,716270043,224,32234,0,0,0,0
73742015000000,73742546000000,531.0,4096,70,70,89467,89536,716278046,716830043,233,32304,0,0,0,0
73742578000000,73743109000000,531.0,4096,71,70,89537,89606,716838044,717390043,228,32375,0,0,0,0
73743140000000,73743656000000,516.0,4096,70,69,89607,89675,717398045,717942046,204,32445,0,0,0,0
73743687000000,73744218000000,531.0,4096,71,71,89676,89746,717950043,718510043,271,32516,0,0,0,0
73744265000000,73744781000000,516.0,4096,71,70,89747,89816,718518047,719070043,217,32587,0,0,0,0
73744812000000,73745343000000,531.0,4096,70,69,89817,89885,719078045,719622046,191,32657,0,0,0,0
73745375000000,73745906000000,531.0,4096,71,70,89886,89955,719630043,720182046,221,32728,0,0,0,0
73745921000000,73746453000000,532.0,4096,71,69,89956,90024,720190043,720734043,248,32799,0,0,0,0
73746484000000,73747015000000,531.0,4096,71,70,90025,90094,720742043,721294046,210,32870,0,0,0,0
73747031000000,73747562000000,531.0,4096,70,69,90095,90163,721302043,721846043,154,32940,0,0,0,0
73747593000000,73748125000000,532.0,4096,71,71,90164,90234,721854047,722414043,196,33011,0,0,0,0
73748156000000,73748687000000,531.0,4096,71,70,90235,90304,722422042,722974045,204,33082,0,0,0,0
73748718000000,73749250000000,532.0,4096,70,69,90305,90373,722982043,723526043,196,33152,0,0,0,0
73749265000000,73749796000000,531.0,4096,71,70,90374,90443,723534046,724086043,163,33223,0,0,0,0
73749828000000,73750359000000,531.0,4096,70,70,90444,90513,724094043,724646043,298,33293,0,0,0,0
73750406000000,73750921000000,515.0,4096,71,70,90514,90583,724654045,725206043,178,33364,0,0,0,0
73750953000000,73751484000000,531.0,4096,71,69,90584,90652,725214043,725758044,131,33435,0,0,0,0
73751500000000,73752031000000,531.0,4096,70,70,90653,90722,725766043,726318043,175,33505,0,0,0,0
73752062000000,73752593000000,531.0,4096,71,70,90723,90792,726326047,726878043,321,33576,0,0,0,0
73752640000000,73753156000000,516.0,4096,71,70,90793,90862,726886043,727438044,180,33647,0,0,0,0
73753171000000,73753718000000,547.0,4096,70,70,90863,90932,727446043,727998046,325,33717,0,0,0,0
73753750000000,73754281000000,531.0,4096,71,70,90933,91002,728006043,728558045,270,33788,0,0,0,0
73754312000000,73754828000000,516.0,4096,71,70,91003,91072,728566043,729118043,312,33859,0,0,0,0
73754875000000,73755390000000,515.0,4096,70,69,91073,91141,729126043,729670046,225,33929,0,0,0,0
73755421000000,73755953000000,532.0,4096,71,71,91142,91212,729678046,730238043,267,34000,0,0,0,0
73755984000000,73756500000000,516.0,4096,71,69,91213,91281,730246043,730790043,169,34071,0,0,0,0
73756531000000,73757062000000,531.0,4096,70,69,91282,91350,730798043,731342046,249,34141,0,0,0,0
73757093000000,73757625000000,532.0,4096,71,71,91351,91421,731350043,731910045,345,34212,0,0,0,0
73757671000000,73758187000000,516.0,4096,70,69,91422,91490,731918047,732462046,207,34282,0,0,0,0
73758218000000,73758750000000,532.0,4096,72,71,91491,91561,732470043,733030044,276,34354,0,0,0,0
73758781000000,73759296000000,515.0,4096,70,70,91562,91631,733038043,733590044,184,34424,0,0,0,0
73759328000000,73759875000000,547.0,4096,72,71,91632,91702,733598043,734158046,1323,34496,0,0,0,0
73760062000000,73760437000000,375.0,4096,71,70,91703,91772,734166045,734718043,178,34567,0,0,0,0
73760468000000,73761000000000,532.0,4096,71,70,91773,91842,734726043,735278043,157,34638,0,0,0,0
73761015000000,73761562000000,547.0,4096,72,71,91843,91913,735286044,735846043,225,34710,0,0,0,0
73761593000000,73762109000000,516.0,4096,70,69,91914,91982,735854045,736398044,269,34780,0,0,0,0
73762156000000,73762671000000,515.0,4096,71,70,91983,92052,736406043,736958043,218,34851,0,0,0,0
73762703000000,73763250000000,547.0,4096,71,71,92053,92123,736966045,737526043,156,34922,0,0,0,0
73763265000000,73763796000000,531.0,4096,70,69,92124,92192,737534045,738078043,194,34992,0,0,0,0
73763828000000,73764359000000,531.0,4096,71,70,92193,92262,738086043,738638045,200,35063,0,0,0,0
73764390000000,73764906000000,516.0,4096,70,69,92263,92331,738646043,739190043,243,35133,0,0,0,0
73764937000000,73765468000000,531.0,4096,71,71,92332,92402,739198046,739758046,121,35204,0,0,0,0
73765500000000,73766031000000,531.0,4096,71,70,92403,92472,739766047,740318044,180,35275,0,0,0,0
73766062000000,73766578000000,516.0,4096,71,68,92473,92540,740326043,740862043,195,35346,0,0,0,0
73766609000000,73767140000000,531.0,4096,71,71,92541,92611,740870046,741430047,227,35417,0,0,0,0
73767171000000,73767703000000,532.0,4096,70,69,92612,92680,741438044,741982043,174,35487,0,0,0,0
73767718000000,73768250000000,532.0,4096,70,69,92681,92749,741990045,742534044,304,35557,0,0,0,0
73768296000000,73768812000000,516.0,4096,71,71,92750,92820,742542043,743102042,237,35628,0,0,0,0
73768859000000,73769375000000,516.0,4096,70,69,92821,92889,743110043,743654044,343,35698,0,0,0,0
73769421000000,73769937000000,516.0,4096,71,70,92890,92959,743662043,744214043,161,35769,0,0,0,0
73769953000000,73770484000000,531.0,4096,70,69,92960,93028,744222046,744766043,187,35839,0,0,0,0
73770515000000,73771046000000,531.0,4096,70,70,93029,93098,744774043,745326043,214,35909,0,0,0,0
73771078000000,73771609000000,531.0,4096,72,70,93099,93168,745334043,745886043,173,35981,0,0,0,0
73771625000000,73772156000000,531.0,4096,70,69,93169,93237,745894043,746438043,206,36051,0,0,0,0
73772187000000,73772718000000,531.0,4096,70,70,93238,93307,746446043,746998043,205,36121,0,0,0,0
73772750000000,73773281000000,531.0,4096,71,70,93308,93377,747006045,747558045,306,36192,0,0,0,0
73773312000000,73773828000000,516.0,4096,70,69,93378,93446,747566043,748110043,132,36262,0,0,0,0
73773843000000,73774390000000,547.0,4096,70,70,93447,93516,748118047,748670043,189,36332,0,0,0,0
73774421000000,73774953000000,532.0,4096,71,70,93517,93586,748678043,749230043,198,36403,0,0,0,0
73774984000000,73775500000000,516.0,4096,70,69,93587,93655,749238043,749782046,279,36473,0,0,0,0
73775546000000,73776062000000,516.0,4096,71,70,93656,93725,749790043,750342043,127,36544,0,0,0,0
73776078000000,73776625000000,547.0,4096,71,70,93726,93795,750350046,750902043,198,36615,0,0,0,0
73776640000000,73777171000000,531.0,4096,70,69,93796,93864,750910043,751454043,183,36685,0,0,0,0
73777203000000,73777734000000,531.0,4096,71,71,93865,93935,751462043,752022043,384,36756,0,0,0,0
73777781000000,73778296000000,515.0,4096,70,69,93936,94004,752030043,752574043,204,36826,0,0,0,0
73778328000000,73778843000000,515.0,4096,70,69,94005,94073,752582046,753126045,243,36896,0,0,0,0
73778875000000,73779406000000,531.0,4096,71,70,94074,94143,753134043,753686045,229,36967,0,0,0,0
73779437000000,73779968000000,531.0,4096,70,70,94144,94213,753694043,754246047,1297,37037,0,0,0,0
73780140000000,73780515000000,375.0,4096,71,70,94214,94283,754254044,754806043,160,37108,0,0,0,0
73780546000000,73781078000000,532.0,4096,71,70,94284,94353,754814043,755366043,229,37179,0,0,0,0
73781109000000,73781640000000,531.0,4096,71,69,94354,94422,755374044,755918043,226,37250,0,0,0,0
73781656000000,73782187000000,531.0,4096,70,70,94423,94492,755926045,756478043,187,37320,0,0,0,0
73782218000000,73782750000000,532.0,4096,71,70,94493,94562,756486045,757038043,289,37391,0,0,0,0
73782796000000,73783312000000,516.0,4096,70,69,94563,94631,757046044,757590043,192,37461,0,0,0,0
73783343000000,73783875000000,532.0,4096,70,70,94632,94701,757598043,758150046,237,37531,0,0,0,0
73783906000000,73784421000000,515.0,4096,71,70,94702,94771,758158043,758710043,214,37602,0,0,0,0
73784453000000,73784984000000,531.0,4096,71,70,94772,94841,758718043,759270043,153,37673,0,0,0,0
73785015000000,73785546000000,531.0,4096,70,70,94842,94911,759278044,759830046,254,37743,0,0,0,0
73785578000000,73786109000000,531.0,4096,71,70,94912,94981,759838043,760390046,181,37814,0,0,0,0
73786140000000,73786656000000,516.0,4096,72,69,94982,95050,760398045,760942043,161,37886,0,0,0,0
73786671000000,73787218000000,547.0,4096,70,69,95051,95119,760950043,761494045,276,37956,0,0,0,0
73787250000000,73787781000000,531.0,4096,71,71,95120,95190,761502043,762062044,377,38027,0,0,0,0
73787828000000,73788328000000,500.0,4096,70,69,95191,95259,762070045,762614045,186,38097,0,0,0,0
73788359000000,73788890000000,531.0,4096,71,70,95260,95329,762622043,763174045,132,38168,0,0,0,0
73788906000000,73789453000000,547.0,4096,70,70,95330,95399,763182043,763734045,268,38238,0,0,0,0
73789484000000,73790015000000,531.0,4096,71,70,95400,95469,763742045,764294044,192,38309,0,0,0,0
73790031000000,73790562000000,531.0,4096,70,69,95470,95538,764302043,764846043,226,38379,0,0,0,0
73790593000000,73791125000000,532.0,4096,71,70,95539,95608,764854047,765406045,202,38450,0,0,0,0
73791140000000,73791687000000,547.0,4096,71,70,95609,95678,765414043,765966046,190,38521,0,0,0,0
73791703000000,73792234000000,531.0,4096,70,69,95679,95747,765974047,766518044,222,38591,0,0,0,0
73792265000000,73792796000000,531.0,4096,71,70,95748,95817,766526043,767078043,282,38662,0,0,0,0
73792828000000,73793359000000,531.0,4096,70,70,95818,95887,767086043,767638044,154,38732,0,0,0,0
73793375000000,73793921000000,546.0,4096,71,70,95888,95957,767646043,768198046,237,38803,0,0,0,0
73793953000000,73794468000000,515.0,4096,70,69,95958,96026,768206043,768750043,206,38873,0,0,0,0
73794500000000,73795031000000,531.0,4096,71,71,96027,96097,768758043,769318043,202,38944,0,0,0,0
73795062000000,73795593000000,531.0,4096,71,70,96098,96167,769326043,769878045,152,39015,0,0,0,0
73795609000000,73796156000000,547.0,4096,70,69,96168,96236,769886044,770430043,241,39085,0,0,0,0
73796187000000,73796703000000,516.0,4096,71,69,96237,96305,770438046,770982050,219,39156,0,0,0,0
73796734000000,73797281000000,547.0,4096,72,72,96306,96377,770990044,771558043,304,39228,0,0,0,0
73797312000000,73797828000000,516.0,4096,71,70,96378,96447,771566043,772118043,271,39299,0,0,0,0
73797875000000,73798390000000,515.0,4096,70,69,96448,96516,772126043,772670045,213,39369,0,0,0,0
73798421000000,73798953000000,532.0,4096,71,71,96517,96587,772678043,773238043,196,39440,0,0,0,0
73798984000000,73799515000000,531.0,4096,71,70,96588,96657,773246043,773798045,221,39511,0,0,0,0
73799546000000,73800078000000,532.0,4096,70,69,96658,96726,773806044,774350046,151,39581,0,0,0,0
73800093000000,73800640000000,547.0,4096,71,71,96727,96797,774358047,774918046,1480,39652,0,0,0,0
73800843000000,73801203000000,360.0,4096,70,70,96798,96867,774926046,775478043,303,39722,0,0,0,0
73801234000000,73801750000000,516.0,4096,71,69,96868,96936,775486043,776030043,237,39793,0,0,0,0
73801781000000,73802312000000,531.0,4096,71,70,96937,97006,776038043,776590043,179,39864,0,0,0,0
73802328000000,73802859000000,531.0,4096,70,70,97007,97076,776598045,777150043,261,39934,0,0,0,0
73802906000000,73803421000000,515.0,4096,71,70,97077,97146,777158043,777710043,206,40005,0,0,0,0
73803453000000,73803984000000,531.0,4096,70,69,97147,97215,777718046,778262045,176,40075,0,0,0,0
73804015000000,73804546000000,531.0,4096,71,71,97216,97286,778270043,778830043,138,40146,0,0,0,0
73804562000000,73805109000000,547.0,4096,71,70,97287,97356,778838044,779390043,208,40217,0,0,0,0
73805140000000,73805656000000,516.0,4096,70,69,97357,97425,779398043,779942047,182,40287,0,0,0,0
73805687000000,73806218000000,531.0,4096,71,71,97426,97496,779950043,780510045,268,40358,0,0,0,0
73806250000000,73806781000000,531.0,4096,72,69,97497,97565,780518043,781062044,294,40430,0,0,0,0
73806812000000,73807328000000,516.0,4096,70,69,97566,97634,781070044,781614043,255,40500,0,0,0,0
73807375000000,73807890000000,515.0,4096,71,70,97635,97704,781622043,782174043,278,40571,0,0,0,0
73807921000000,73808453000000,532.0,4096,70,70,97705,97774,782182045,782734043,201,40641,0,0,0,0
73808484000000,73809015000000,531.0,4096,71,70,97775,97844,782742043,783294043,184,40712,0,0,0,0
73809046000000,73809578000000,532.0,4096,71,70,97845,97914,783302046,783854043,195,40783,0,0,0,0
73809593000000,73810140000000,547.0,4096,70,70,97915,97984,783862047,784414043,224,40853,0,0,0,0
73810171000000,73810687000000,516.0,4096,71,70,97985,98054,784422046,784974043,202,40924,0,0,0,0
73810718000000,73811250000000,532.0,4096,71,70,98055,98124,784982047,785534043,171,40995,0,0,0,0
73811281000000,73811812000000,531.0,4096,70,69,98125,98193,785542047,786086044,256,41065,0,0,0,0
73811843000000,73812359000000,516.0,4096,71,70,98194,98263,786094043,786646045,202,41136,0,0,0,0
73812390000000,73812921000000,531.0,4096,70,69,98264,98332,786654043,787198044,246,41206,0,0,0,0
73812953000000,73813484000000,531.0,4096,71,71,98333,98403,787206043,787766043,193,41277,0,0,0,0
73813515000000,73814031000000,516.0,4096,70,69,98404,98472,787774043,788318043,301,41347,0,0,0,0
73814078000000,73814593000000,515.0,4096,71,70,98473,98542,788326046,788878044,260,41418,0,0,0,0
73814625000000,73815156000000,531.0,4096,71,70,98543,98612,788886043,789438043,167,41489,0,0,0,0
73815171000000,73815718000000,547.0,4096,70,70,98613,98682,789446043,789998043,234,41559,0,0,0,0
73815750000000,73816265000000,515.0,4096,70,69,98683,98751,790006047,790550046,352,41629,0,0,0,0
73816328000000,73816828000000,500.0,4096,72,70,98752,98821,790558044,791110043,258,41701,0,0,0,0
73816859000000,73817375000000,516.0,4096,70,69,98822,98890,791118043,791662050,191,41771,0,0,0,0
73817406000000,73817953000000,547.0,4096,71,71,98891,98961,791670043,792230045,285,41842,0,0,0,0
73817984000000,73818500000000,516.0,4096,70,69,98962,99030,792238043,792782046,228,41912,0,0,0,0
73818531000000,73819062000000,531.0,4096,71,70,99031,99100,792790043,793342044,264,41983,0,0,0,0
73819093000000,73819625000000,532.0,4096,70,70,99101,99170,793350043,793902043,202,42053,0,0,0,0
73819656000000,73820171000000,515.0,4096,71,70,99171,99240,793910045,794462043,1460,42124,0,0,0,0
73820375000000,73820734000000,359.0,4096,70,69,99241,99309,794470043,795014043,225,42194,0,0,0,0
73820765000000,73821296000000,531.0,4096,70,70,99310,99379,795022043,795574045,284,42264,0,0,0,0
73821328000000,73821843000000,515.0,4096,71,69,99380,99448,795582043,796126043,243,42335,0,0,0,0
73821875000000,73822406000000,531.0,4096,71,70,99449,99518,796134045,796686043,207,42406,0,0,0,0
73822437000000,73822968000000,531.0,4096,71,70,99519,99588,796694046,797246043,228,42477,0,0,0,0
73822984000000,73823531000000,547.0,4096,70,70,99589,99658,797254044,797806043,235,42547,0,0,0,0
73823562000000,73824078000000,516.0,4096,71,70,99659,99728,797814043,798366043,218,42618,0,0,0,0
73824109000000,73824640000000,531.0,4096,70,69,99729,99797,798374043,798918046,140,42688,0,0,0,0
73824656000000,73825203000000,547.0,4096,70,70,99798,99867,798926044,799478043,296,42758,0,0,0,0
73825234000000,73825750000000,516.0,4096,71,70,99868,99937,799486043,800038044,290,42829,0,0,0,0
73825796000000,73826312000000,516.0,4096,70,69,99938,100006,800046043,800590043,214,42899,0,0,0,0
73826328000000,73826859000000,531.0,4096,71,69,100007,100075,800598045,801142043,234,42970,0,0,0,0
73826890000000,73827406000000,516.0,4096,69,68,100076,100143,801150044,801686043,243,43039,0,0,0,0
73827437000000,73827953000000,516.0,4096,69,68,100144,100211,801694043,802230045,230,43108,0,0,0,0
73827984000000,73828500000000,516.0,4096,70,70,100212,100281,802238044,802790043,176,43178,0,0,0,0
73828531000000,73829046000000,515.0,4096,69,68,100282,100349,802798043,803334043,187,43247,0,0,0,0
73829078000000,73829593000000,515.0,4096,69,68,100350,100417,803342045,803878043,197,43316,0,0,0,0
73829625000000,73830140000000,515.0,4096,70,69,100418,100486,803886043,804430043,221,43386,0,0,0,0
73830171000000,73830703000000,532.0,4096,69,69,100487,100555,804438043,804982045,262,43455,0,0,0,0
73830734000000,73831250000000,516.0,4096,69,68,100556,100623,804990045,805526044,277,43524,0,0,0,0
73831281000000,73831796000000,515.0,4096,70,68,100624,100691,805534043,806070045,132,43594,0,0,0,0
73831812000000,73832343000000,531.0,4096,70,70,100692,100761,806078043,806630043,230,43664,0,0,0,0
73832375000000,73832890000000,515.0,4096,69,68,100762,100829,806638043,807174043,271,43733,0,0,0,0
73832937000000,73833437000000,500.0,4096,69,68,100830,100897,807182043,807718043,230,43802,0,0,0,0
73833468000000,73833984000000,516.0,4096,69,69,100898,100966,807726045,808270044,157,43871,0,0,0,0
73834015000000,73834531000000,516.0,4096,70,69,100967,101035,808278043,808822043,182,43941,0,0,0,0
73834562000000,73835078000000,516.0,4096,69,68,101036,101103,808830043,809366043,190,44010,0,0,0,0
73835109000000,73835640000000,531.0,4096,69,69,101104,101172,809374044,809918043,169,44079,0,0,0,0
73835656000000,73836187000000,531.0,4096,70,69,101173,101241,809926043,810470046,230,44149,0,0,0,0
73836218000000,73836734000000,516.0,4096,70,68,101242,101309,810478043,811014045,299,44219,0,0,0,0
73836781000000,73837281000000,500.0,4096,70,69,101310,101378,811022045,811566046,264,44289,0,0,0,0
73837312000000,73837843000000,531.0,4096,69,69,101379,101447,811574043,812118043,256,44358,0,0,0,0
73837875000000,73838390000000,515.0,4096,70,69,101448,101516,812126043,812670043,260,44428,0,0,0,0
73838421000000,73838937000000,516.0,4096,70,69,101517,101585,812678043,813222043,274,44498,0,0,0,0
73838968000000,73839484000000,516.0,4096,69,69,101586,101654,813230045,813774044,243,44567,0,0,0,0
73839531000000,73840031000000,500.0,4096,69,68,101655,101722,813782043,814318043,198,44636,0,0,0,0
73840062000000,73840593000000,531.0,4096,70,69,101723,101791,814326046,814870047,183,44706,0,0,0,0
73840609000000,73841140000000,531.0,4096,69,69,101792,101860,814878043,815422046,1702,44775,0,0,0,0
73841359000000,73841687000000,328.0,4096,70,68,101861,101928,815430045,815966043,174,44845,0,0,0,0
73841703000000,73842234000000,531.0,4096,70,69,101929,101997,815974043,816518044,215,44915,0,0,0,0
73842265000000,73842781000000,516.0,4096,69,69,101998,102066,816526046,817070043,342,44984,0,0,0,0
73842828000000,73843328000000,500.0,4096,69,68,102067,102134,817078043,817614043,161,45053,0,0,0,0
73843359000000,73843890000000,531.0,4096,70,69,102135,102203,817622043,818166045,250,45123,0,0,0,0
73843921000000,73844437000000,516.0,4096,69,68,102204,102271,818174044,818710043,187,45192,0,0,0,0
73844453000000,73844984000000,531.0,4096,69,69,102272,102340,818718044,819262043,163,45261,0,0,0,0
73845000000000,73845531000000,531.0,4096,70,69,102341,102409,819270043,819814043,213,45331,0,0,0,0
73845562000000,73846078000000,516.0,4096,69,68,102410,102477,819822044,820358043,195,45400,0,0,0,0
73846109000000,73846625000000,516.0,4096,70,68,102478,102545,820366043,820902044,236,45470,0,0,0,0
73846656000000,73847171000000,515.0,4096,70,69,102546,102614,820910043,821454044,167,45540,0,0,0,0
73847187000000,73847718000000,531.0,4096,69,68,102615,102682,821462044,821998044,302,45609,0,0,0,0
73847750000000,73848265000000,515.0,4096,69,69,102683,102751,822006043,822550044,336,45678,0,0,0,0
73848312000000,73848812000000,500.0,4096,70,69,102752,102820,822558043,823102045,173,45748,0,0,0,0
73848843000000,73849359000000,516.0,4096,69,68,102821,102888,823110043,823646047,227,45817,0,0,0,0
73849390000000,73849921000000,531.0,4096,69,69,102889,102957,823654043,824198043,222,45886,0,0,0,0
73849953000000,73850468000000,515.0,4096,69,68,102958,103025,824206043,824742044,153,45955,0,0,0,0
73850484000000,73851015000000,531.0,4096,70,69,103026,103094,824750043,825294043,228,46025,0,0,0,0
73851046000000,73851562000000,516.0,4096,69,68,103095,103162,825302043,825838043,216,46094,0,0,0,0
73851578000000,73852109000000,531.0,4096,70,69,103163,103231,825846044,826390043,235,46164,0,0,0,0
73852140000000,73852656000000,516.0,4096,69,68,103232,103299,826398043,826934043,198,46233,0,0,0,0
73852687000000,73853203000000,516.0,4096,70,69,103300,103368,826942044,827486043,268,46303,0,0,0,0
73853234000000,73853750000000,516.0,4096,69,69,103369,103437,827494043,828038043,303,46372,0,0,0,0
73853796000000,73854296000000,500.0,4096,69,68,103438,103505,828046043,828582043,176,46441,0,0,0,0
73854328000000,73854843000000,515.0,4096,69,68,103506,103573,828590044,829126043,304,46510,0,0,0,0
73854890000000,73855406000000,516.0,4096,70,70,103574,103643,829134043,829686043,211,46580,0,0,0,0
73855437000000,73855953000000,516.0,4096,69,68,103644,103711,829694043,830230043,343,46649,0,0,0,0
73856000000000,73856484000000,484.0,4096,70,68,103712,103779,830238043,830774043,147,46719,0,0,0,0
73856515000000,73857046000000,531.0,4096,69,69,103780,103848,830782045,831326043,219,46788,0,0,0,0
73857078000000,73857593000000,515.0,4096,70,69,103849,103917,831334046,831878043,278,46858,0,0,0,0
73857640000000,73858140000000,500.0,4096,70,69,103918,103986,831886043,832430047,161,46928,0,0,0,0
73858171000000,73858703000000,532.0,4096,69,69,103987,104055,832438043,832982045,269,46997,0,0,0,0
73858734000000,73859250000000,516.0,4096,70,69,104056,104124,832990043,833534045,303,47067,0,0,0,0
73859296000000,73859796000000,500.0,4096,69,68,104125,104192,833542043,834078044,219,47136,0,0,0,0
73859828000000,73860343000000,515.0,4096,70,69,104193,104261,834086043,834630045,168,47206,0,0,0,0
73860359000000,73860906000000,547.0,4096,70,70,104262,104331,834638043,835190045,205,47276,0,0,0,0
73860937000000,73861453000000,516.0,4096,71,69,104332,104400,835198043,835742046,1528,47347,0,0,0,0
73861656000000,73862000000000,344.0,4096,69,68,104401,104468,835750043,836286047,205,47416,0,0,0,0
73862031000000,73862562000000,531.0,4096,70,70,104469,104538,836294044,836846043,257,47486,0,0,0,0
73862609000000,73863109000000,500.0,4096,70,69,104539,104607,836854044,837398043,254,47556,0,0,0,0
73863140000000,73863656000000,516.0,4096,69,68,104608,104675,837406045,837942045,234,47625,0,0,0,0
73863687000000,73864218000000,531.0,4096,70,70,104676,104745,837950045,838502046,230,47695,0,0,0,0
73864250000000,73864765000000,515.0,4096,70,69,104746,104814,838510043,839054045,320,47765,0,0,0,0
73864812000000,73865312000000,500.0,4096,69,68,104815,104882,839062043,839598045,213,47834,0,0,0,0
73865343000000,73865859000000,516.0,4096,69,69,104883,104951,839606043,840150043,226,47903,0,0,0,0
73865890000000,73866406000000,516.0,4096,71,68,104952,105019,840158046,840694043,198,47974,0,0,0,0
73866437000000,73866953000000,516.0,4096,69,68,105020,105087,840702044,841238045,211,48043,0,0,0,0
73866984000000,73867500000000,516.0,4096,69,68,105088,105155,841246043,841782046,309,48112,0,0,0,0
73867546000000,73868062000000,516.0,4096,69,69,105156,105224,841790043,842334045,181,48181,0,0,0,0
73868078000000,73868609000000,531.0,4096,70,69,105225,105293,842342043,842886043,234,48251,0,0,0,0
73868640000000,73869156000000,516.0,4096,70,69,105294,105362,842894044,843438046,258,48321,0,0,0,0
73869187000000,73869703000000,516.0,4096,69,69,105363,105431,843446047,843990043,314,48390,0,0,0,0
73869750000000,73870265000000,515.0,4096,70,69,105432,105500,843998043,844542043,173,48460,0,0,0,0
73870281000000,73870812000000,531.0,4096,69,68,105501,105568,844550043,845086043,231,48529,0,0,0,0
73870828000000,73871359000000,531.0,4096,70,69,105569,105637,845094044,845638043,192,48599,0,0,0,0
73871375000000,73871906000000,531.0,4096,69,68,105638,105705,845646043,846182043,177,48668,0,0,0,0
73871921000000,73872453000000,532.0,4096,70,69,105706,105774,846190046,846734047,306,48738,0,0,0,0
73872500000000,73873000000000,500.0,4096,69,69,105775,105843,846742045,847286045,252,48807,0,0,0,0
73873031000000,73873546000000,515.0,4096,69,68,105844,105911,847294043,847830043,194,48876,0,0,0,0
73873578000000,73874093000000,515.0,4096,70,69,105912,105980,847838046,848382044,212,48946,0,0,0,0
73874125000000,73874640000000,515.0,4096,69,68,105981,106048,848390043,848926043,244,49015,0,0,0,0
73874671000000,73875203000000,532.0,4096,70,70,106049,106118,848934047,849486043,209,49085,0,0,0,0
73875234000000,73875750000000,516.0,4096,69,68,106119,106186,849494043,850030045,211,49154,0,0,0,0
73875781000000,73876296000000,515.0,4096,70,69,106187,106255,850038043,850582043,202,49224,0,0,0,0
73876328000000,73876843000000,515.0,4096,69,68,106256,106323,850590043,851126047,256,49293,0,0,0,0
73876875000000,73877390000000,515.0,4096,69,68,106324,106391,851134045,851670045,212,49362,0,0,0,0
73877421000000,73877937000000,516.0,4096,70,69,106392,106460,851678043,852222046,255,49432,0,0,0,0
73877968000000,73878500000000,532.0,4096,69,69,106461,106529,852230043,852774043,215,49501,0,0,0,0
73878531000000,73879046000000,515.0,4096,70,69,106530,106598,852782043,853326043,225,49571,0,0,0,0
73879078000000,73879593000000,515.0,4096,70,69,106599,106667,853334045,853878043,239,49641,0,0,0,0
73879625000000,73880140000000,515.0,4096,69,69,106668,106736,853886043,854430043,166,49710,0,0,0,0
73880171000000,73880687000000,516.0,4096,69,68,106737,106804,854438043,854974043,259,49779,0,0,0,0
73880734000000,73881250000000,516.0,4096,70,69,106805,106873,854982043,855526043,325,49849,0,0,0,0
73881281000000,73881796000000,515.0,4096,70,68,106874,106941,855534043,856070043,1649,49919,0,0,0,0
73882015000000,73882343000000,328.0,4096,69,69,106942,107010,856078043,856622043,220,49988,0,0,0,0
73882359000000,73882890000000,531.0,4096,69,68,107011,107078,856630043,857166043,247,50057,0,0,0,0
73882921000000,73883437000000,516.0,4096,70,69,107079,107147,857174043,857718043,137,50127,0,0,0,0
73883453000000,73883984000000,531.0,4096,69,69,107148,107216,857726043,858270043,191,50196,0,0,0,0
73884015000000,73884546000000,531.0,4096,70,69,107217,107285,858278043,858822047,264,50266,0,0,0,0
73884578000000,73885093000000,515.0,4096,69,68,107286,107353,858830043,859366046,247,50335,0,0,0,0
73885125000000,73885640000000,515.0,4096,70,70,107354,107423,859374043,859926043,217,50405,0,0,0,0
73885671000000,73886187000000,516.0,4096,69,68,107424,107491,859934043,860470043,141,50474,0,0,0,0
73886203000000,73886734000000,531.0,4096,71,68,107492,107559,860478043,861014046,263,50545,0,0,0,0
73886765000000,73887281000000,516.0,4096,69,69,107560,107628,861022043,861566043,300,50614,0,0,0,0
73887328000000,73887828000000,500.0,4096,69,68,107629,107696,861574043,862110043,193,50683,0,0,0,0
73887859000000,73888375000000,516.0,4096,70,69,107697,107765,862118043,862662045,235,50753,0,0,0,0
73888406000000,73888937000000,531.0,4096,69,69,107766,107834,862670043,863214047,255,50822,0,0,0,0
73888968000000,73889484000000,516.0,4096,69,68,107835,107902,863222043,863758044,155,50891,0,0,0,0
73889500000000,73890031000000,531.0,4096,70,69,107903,107971,863766043,864310045,221,50961,0,0,0,0
73890062000000,73890578000000,516.0,4096,69,69,107972,108040,864318043,864862045,187,51030,0,0,0,0
73890609000000,73891125000000,516.0,4096,70,69,108041,108109,864870044,865414043,285,51100,0,0,0,0
73891171000000,73891671000000,500.0,4096,69,67,108110,108176,865422044,865950043,157,51169,0,0,0,0
73891687000000,73892218000000,531.0,4096,70,69,108177,108245,865958045,866502043,258,51239,0,0,0,0
73892250000000,73892781000000,531.0,4096,69,69,108246,108314,866510043,867054044,407,51308,0,0,0,0
73892828000000,73893312000000,484.0,4096,69,68,108315,108382,867062043,867598043,212,51377,0,0,0,0
73893343000000,73893875000000,532.0,4096,70,69,108383,108451,867606043,868150043,226,51447,0,0,0,0
73893906000000,73894421000000,515.0,4096,69,69,108452,108520,868158043,868702043,243,51516,0,0,0,0
73894453000000,73894968000000,515.0,4096,70,69,108521,108589,868710043,869254045,257,51586,0,0,0,0
73895000000000,73895515000000,515.0,4096,69,68,108590,108657,869262043,869798043,198,51655,0,0,0,0
73895546000000,73896078000000,532.0,4096,70,70,108658,108727,869806043,870358043,289,51725,0,0,0,0
73896109000000,73896609000000,500.0,4096,69,67,108728,108794,870366044,870894044,181,51794,0,0,0,0
73896640000000,73897156000000,516.0,4096,70,69,108795,108863,870902043,871446046,165,51864,0,0,0,0
73897187000000,73897718000000,531.0,4096,69,69,108864,108932,871454043,871998043,255,51933,0,0,0,0
73897750000000,73898265000000,515.0,4096,70,69,108933,109001,872006045,872550043,319,52003,0,0,0,0
73898312000000,73898812000000,500.0,4096,69,68,109002,109069,872558043,873094042,154,52072,0,0,0,0
73898828000000,73899359000000,531.0,4096,69,69,109070,109138,873102043,873646044,188,52141,0,0,0,0
73899390000000,73899921000000,531.0,4096,70,70,109139,109208,873654044,874206045,177,52211,0,0,0,0
73899953000000,73900468000000,515.0,4096,69,68,109209,109276,874214043,874750043,220,52280,0,0,0,0
73900500000000,73901015000000,515.0,4096,69,69,109277,109345,874758044,875302046,141,52349,0,0,0,0
73901046000000,73901562000000,516.0,4096,70,68,109346,109413,875310044,875846043,262,52419,0,0,0,0
73901593000000,73902125000000,532.0,4096,69,69,109414,109482,875854045,876398043,1644,52488,0,0,0,0
73902343000000,73902671000000,328.0,4096,70,69,109483,109551,876406043,876950046,295,52558,0,0,0,0
73902703000000,73903218000000,515.0,4096,69,69,109552,109620,876958043,877502043,142,52627,0,0,0,0
73903234000000,73903765000000,531.0,4096,69,68,109621,109688,877510043,878046043,364,52696,0,0,0,0
73903812000000,73904312000000,500.0,4096,70,69,109689,109757,878054043,878598046,291,52766,0,0,0,0
73904343000000,73904875000000,532.0,4096,69,69,109758,109826,878606043,879150043,175,52835,0,0,0,0
73904890000000,73905421000000,531.0,4096,69,68,109827,109894,879158043,879694044,215,52904,0,0,0,0
73905453000000,73905968000000,515.0,4096,70,69,109895,109963,879702043,880246043,220,52974,0,0,0,0
73905984000000,73906500000000,516.0,4096,70,67,109964,110030,880254044,880782043,176,53044,0,0,0,0
73906531000000,73907062000000,531.0,4096,70,70,110031,110100,880790045,881342047,304,53114,0,0,0,0
73907093000000,73907609000000,516.0,4096,69,68,110101,110168,881350043,881886047,275,53183,0,0,0,0
73907640000000,73908156000000,516.0,4096,70,69,110169,110237,881894045,882438045,233,53253,0,0,0,0
73908187000000,73908718000000,531.0,4096,70,70,110238,110307,882446043,882998044,163,53323,0,0,0,0
73908734000000,73909265000000,531.0,4096,69,68,110308,110375,883006043,883542044,236,53392,0,0,0,0
73909296000000,73909812000000,516.0,4096,69,68,110376,110443,883550043,884086044,241,53461,0,0,0,0
73909843000000,73910359000000,516.0,4096,70,70,110444,110513,884094044,884646045,172,53531,0,0,0,0
73910390000000,73910921000000,531.0,4096,70,69,110514,110582,884654043,885198043,270,53601,0,0,0,0
73910953000000,73911468000000,515.0,4096,70,68,110583,110650,885206044,885742044,187,53671,0,0,0,0
73911484000000,73912000000000,516.0,4096,69,68,110651,110718,885750045,886286047,272,53740,0,0,0,0
73912046000000,73912562000000,516.0,4096,70,70,110719,110788,886294043,886846043,194,53810,0,0,0,0
73912593000000,73913109000000,516.0,4096,70,69,110789,110857,886854047,887398043,255,53880,0,0,0,0
73913140000000,73913656000000,516.0,4096,69,68,110858,110925,887406044,887942045,186,53949,0,0,0,0
73913687000000,73914218000000,531.0,4096,69,69,110926,110994,887950045,888494043,211,54018,0,0,0,0
73914250000000,73914765000000,515.0,4096,70,69,110995,111063,888502043,889046046,279,54088,0,0,0,0
73914796000000,73915312000000,516.0,4096,70,69,111064,111132,889054043,889598043,185,54158,0,0,0,0
73915343000000,73915859000000,516.0,4096,69,69,111133,111201,889606043,890150043,210,54227,0,0,0,0
73915890000000,73916406000000,516.0,4096,70,68,111202,111269,890158043,890694043,164,54297,0,0,0,0
73916437000000,73916953000000,516.0,4096,69,68,111270,111337,890702043,891238047,224,54366,0,0,0,0
73916984000000,73917515000000,531.0,4096,69,69,111338,111406,891246043,891790043,238,54435,0,0,0,0
73917546000000,73918062000000,516.0,4096,70,69,111407,111475,891798043,892342043,224,54505,0,0,0,0
73918093000000,73918609000000,516.0,4096,69,68,111476,111543,892350043,892886043,197,54574,0,0,0,0
73918625000000,73919156000000,531.0,4096,70,69,111544,111612,892894043,893438043,235,54644,0,0,0,0
73919187000000,73919703000000,516.0,4096,68,68,111613,111680,893446043,893982043,211,54712,0,0,0,0
73919734000000,73920250000000,516.0,4096,70,69,111681,111749,893990045,894534045,179,54782,0,0,0,0
73920281000000,73920796000000,515.0,4096,69,68,111750,111817,894542043,895078043,329,54851,0,0,0,0
73920843000000,73921343000000,500.0,4096,70,69,111818,111886,895086043,895630046,236,54921,0,0,0,0
73921375000000,73921906000000,531.0,4096,70,69,111887,111955,895638046,896182045,331,54991,0,0,0,0
73921937000000,73922437000000,500.0,4096,69,68,111956,112023,896190046,896726045,1632,55060,0,0,0,0
73922671000000,73923000000000,329.0,4096,69,69,112024,112092,896734044,897278043,258,55129,0,0,0,0
73923031000000,73923546000000,515.0,4096,69,68,112093,112160,897286043,897822043,244,55198,0,0,0,0
73923578000000,73924093000000,515.0,4096,70,69,112161,112229,897830043,898374043,231,55268,0,0,0,0
73924125000000,73924640000000,515.0,4096,69,69,112230,112298,898382044,898926043,257,55337,0,0,0,0
73924687000000,73925187000000,500.0,4096,69,68,112299,112366,898934043,899470047,183,55406,0,0,0,0
73925218000000,73925750000000,532.0,4096,70,69,112367,112435,899478046,900022043,179,55476,0,0,0,0
73925765000000,73926312000000,547.0,4096,69,69,112436,112504,900030043,900574044,435,55545,0,0,0,0
73926343000000,73926828000000,485.0,4096,70,67,112505,112571,900582043,901110043,210,55615,0,0,0,0
73926859000000,73927375000000,516.0,4096,70,69,112572,112640,901118043,901662043,246,55685,0,0,0,0
73927421000000,73927937000000,516.0,4096,70,70,112641,112710,901670045,902222046,215,55755,0,0,0,0
73927968000000,73928484000000,516.0,4096,69,68,112711,112778,902230043,902766046,272,55824,0,0,0,0
73928531000000,73929031000000,500.0,4096,70,69,112779,112847,902774046,903318043,212,55894,0,0,0,0
73929062000000,73929593000000,531.0,4096,69,69,112848,112916,903326043,903870047,154,55963,0,0,0,0
73929609000000,73930140000000,531.0,4096,70,69,112917,112985,903878043,904422043,281,56033,0,0,0,0
73930171000000,73930687000000,516.0,4096,69,69,112986,113054,904430044,904974043,254,56102,0,0,0,0
73930718000000,73931250000000,532.0,4096,70,69,113055,113123,904982043,905526045,213,56172,0,0,0,0
73931265000000,73931796000000,531.0,4096,70,69,113124,113192,905534044,906078044,234,56242,0,0,0,0
73931828000000,73932343000000,515.0,4096,69,68,113193,113260,906086043,906622043,334,56311,0,0,0,0
73932390000000,73932890000000,500.0,4096,70,69,113261,113329,906630043,907174043,266,56381,0,0,0,0
73932921000000,73933437000000,516.0,4096,69,69,113330,113398,907182046,907726043,215,56450,0,0,0,0
73933468000000,73933984000000,516.0,4096,69,68,113399,113466,907734043,908270043,310,56519,0,0,0,0
73934031000000,73934531000000,500.0,4096,70,69,113467,113535,908278047,908822043,212,56589,0,0,0,0
73934562000000,73935078000000,516.0,4096,69,68,113536,113603,908830043,909366043,214,56658,0,0,0,0
73935109000000,73935640000000,531.0,4096,69,69,113604,113672,909374043,909918043,266,56727,0,0,0,0
73935671000000,73936187000000,516.0,4096,69,68,113673,113740,909926043,910462043,215,56796,0,0,0,0
73936218000000,73936734000000,516.0,4096,71,69,113741,113809,910470045,911014043,326,56867,0,0,0,0
73936781000000,73937281000000,500.0,4096,69,69,113810,113878,911022043,911566044,322,56936,0,0,0,0
73937328000000,73937828000000,500.0,4096,69,68,113879,113946,911574043,912110043,214,57005,0,0,0,0
73937859000000,73938375000000,516.0,4096,69,68,113947,114014,912118043,912654043,219,57074,0,0,0,0
73938406000000,73938937000000,531.0,4096,70,70,114015,114084,912662044,913214044,208,57144,0,0,0,0
73938953000000,73939484000000,531.0,4096,69,68,114085,114152,913222043,913758043,252,57213,0,0,0,0
73939515000000,73940015000000,500.0,4096,69,68,114153,114220,913766043,914302044,236,57282,0,0,0,0
73940062000000,73940578000000,516.0,4096,70,70,114221,114290,914310043,914862043,256,57352,0,0,0,0
73940609000000,73941125000000,516.0,4096,70,69,114291,114359,914870043,915414044,226,57422,0,0,0,0
73941156000000,73941671000000,515.0,4096,70,68,114360,114427,915422043,915958043,177,57492,0,0,0,0
73941703000000,73942218000000,515.0,4096,69,68,114428,114495,915966043,916502046,250,57561,0,0,0,0
73942250000000,73942781000000,531.0,4096,69,69,114496,114564,916510043,917054043,277,57630,0,0,0,0
73942812000000,73943328000000,516.0,4096,70,69,114565,114633,917062046,917606043,1661,57700,0,0,0,0
73943546000000,73943875000000,329.0,4096,69,68,114634,114701,917614044,918150043,212,57769,0,0,0,0
73943906000000,73944421000000,515.0,4096,70,70,114702,114771,918158045,918710043,235,57839,0,0,0,0
73944453000000,73944968000000,515.0,4096,69,68,114772,114839,918718046,919254045,163,57908,0,0,0,0
73945000000000,73945515000000,515.0,4096,69,68,114840,114907,919262043,919798044,282,57977,0,0,0,0
73945562000000,73946078000000,516.0,4096,70,70,114908,114977,919806043,920358046,262,58047,0,0,0,0
73946109000000,73946609000000,500.0,4096,70,67,114978,115044,920366043,920894044,217,58117,0,0,0,0
73946640000000,73947156000000,516.0,4096,69,68,115045,115112,920902043,921438043,235,58186,0,0,0,0
73947187000000,73947703000000,516.0,4096,69,69,115113,115181,921446043,921990043,295,58255,0,0,0,0
73947750000000,73948265000000,515.0,4096,70,69,115182,115250,921998043,922542043,230,58325,0,0,0,0
73948296000000,73948812000000,516.0,4096,69,68,115251,115318,922550043,923086044,200,58394,0,0,0,0
73948828000000,73949359000000,531.0,4096,69,69,115319,115387,923094043,923638043,271,58463,0,0,0,0
73949390000000,73949906000000,516.0,4096,70,69,115388,115456,923646044,924190043,233,58533,0,0,0,0
73949937000000,73950453000000,516.0,4096,69,68,115457,115524,924198043,924734043,185,58602,0,0,0,0
73950468000000,73951000000000,532.0,4096,70,69,115525,115593,924742043,925286043,245,58672,0,0,0,0
73951031000000,73951546000000,515.0,4096,69,68,115594,115661,925294043,925830043,215,58741,0,0,0,0
73951578000000,73952093000000,515.0,4096,70,69,115662,115730,925838043,926382043,254,58811,0,0,0,0
73952125000000,73952640000000,515.0,4096,70,69,115731,115799,926390045,926934043,179,58881,0,0,0,0
73952671000000,73953203000000,532.0,4096,69,69,115800,115868,926942044,927486045,236,58950,0,0,0,0
73953234000000,73953750000000,516.0,4096,69,68,115869,115936,927494043,928030043,193,59019,0,0,0,0
73953781000000,73954296000000,515.0,4096,69,68,115937,116004,928038043,928574043,298,59088,0,0,0,0
73954328000000,73954843000000,515.0,4096,69,69,116005,116073,928582043,929126045,237,59157,0,0,0,0
73954875000000,73955390000000,515.0,4096,70,69,116074,116142,929134044,929678043,225,59227,0,0,0,0
73955421000000,73955937000000,516.0,4096,69,68,116143,116210,929686046,930222043,163,59296,0,0,0,0
73955968000000,73956484000000,516.0,4096,70,69,116211,116279,930230046,930774043,283,59366,0,0,0,0
73956531000000,73957031000000,500.0,4096,69,68,116280,116347,930782043,931318043,218,59435,0,0,0,0
73957062000000,73957593000000,531.0,4096,70,69,116348,116416,931326045,931870043,295,59505,0,0,0,0
73957625000000,73958125000000,500.0,4096,69,68,116417,116484,931878045,932414043,194,59574,0,0,0,0
73958156000000,73958687000000,531.0,4096,69,69,116485,116553,932422043,932966043,208,59643,0,0,0,0
73958718000000,73959234000000,516.0,4096,70,69,116554,116622,932974043,933518043,236,59713,0,0,0,0
73959265000000,73959781000000,516.0,4096,70,69,116623,116691,933526044,934070043,205,59783,0,0,0,0
73959812000000,73960343000000,531.0,4096,69,69,116692,116760,934078047,934622045,262,59852,0,0,0,0
73960375000000,73960890000000,515.0,4096,70,69,116761,116829,934630043,935174046,211,59922,0,0,0,0
73960921000000,73961437000000,516.0,4096,71,69,116830,116898,935182045,935726045,215,59993,0,0,0,0
73961468000000,73962000000000,532.0,4096,69,69,116899,116967,935734046,936278043,189,60062,0,0,0,0
73962015000000,73962546000000,531.0,4096,70,69,116968,117036,936286047,936830043,298,60132,0,0,0,0
73962578000000,73963093000000,515.0,4096,69,68,117037,117104,936838047,937374047,225,60201,0,0,0,0
73963125000000,73963656000000,531.0,4096,70,70,117105,117174,937382043,937934045,1867,60271,0,0,0,0
73963906000000,73964187000000,281.0,4096,69,68,117175,117242,937942043,938478043,255,60340,0,0,0,0
73964234000000,73964734000000,500.0,4096,68,67,117243,117309,938486043,939014045,214,60408,0,0,0,0
73964765000000,73965296000000,531.0,4096,70,70,117310,117379,939022043,939574047,267,60478,0,0,0,0
73965328000000,73965828000000,500.0,4096,69,68,117380,117447,939582043,940118044,217,60547,0,0,0,0
73965859000000,73966375000000,516.0,4096,70,68,117448,117515,940126045,940662043,232,60617,0,0,0,0
73966406000000,73966921000000,515.0,4096,69,68,117516,117583,940670044,941206043,270,60686,0,0,0,0
73966953000000,73967468000000,515.0,4096,70,69,117584,117652,941214043,941758043,156,60756,0,0,0,0
73967500000000,73968015000000,515.0,4096,69,68,117653,117720,941766045,942302043,338,60825,0,0,0,0
73968062000000,73968578000000,516.0,4096,70,69,117721,117789,942310043,942854046,259,60895,0,0,0,0
73968609000000,73969125000000,516.0,4096,70,70,117790,117859,942862043,943414043,206,60965,0,0,0,0
73969156000000,73969687000000,531.0,4096,70,69,117860,117928,943422046,943966043,224,61035,0,0,0,0
73969718000000,73970234000000,516.0,4096,69,68,117929,117996,943974043,944510043,230,61104,0,0,0,0
73970265000000,73970781000000,516.0,4096,69,69,117997,118065,944518044,945062044,405,61173,0,0,0,0
73970828000000,73971328000000,500.0,4096,70,69,118066,118134,945070043,945614046,194,61243,0,0,0,0
73971359000000,73971875000000,516.0,4096,70,68,118135,118202,945622043,946158043,218,61313,0,0,0,0
73971906000000,73972421000000,515.0,4096,69,69,118203,118271,946166046,946710044,347,61382,0,0,0,0
73972468000000,73972968000000,500.0,4096,69,68,118272,118339,946718043,947254043,226,61451,0,0,0,0
73973000000000,73973515000000,515.0,4096,69,68,118340,118407,947262043,947798043,213,61520,0,0,0,0
73973546000000,73974062000000,516.0,4096,70,69,118408,118476,947806043,948350046,284,61590,0,0,0,0
73974109000000,73974625000000,516.0,4096,69,69,118477,118545,948358043,948902043,326,61659,0,0,0,0
73974656000000,73975171000000,515.0,4096,70,69,118546,118614,948910043,949454043,206,61729,0,0,0,0
73975203000000,73975718000000,515.0,4096,69,68,118615,118682,949462043,949998043,208,61798,0,0,0,0
73975750000000,73976265000000,515.0,4096,69,69,118683,118751,950006044,950550043,262,61867,0,0,0,0
73976296000000,73976812000000,516.0,4096,70,68,118752,118819,950558043,951094043,331,61937,0,0,0,0
73976859000000,73977359000000,500.0,4096,70,69,118820,118888,951102045,951646043,196,62007,0,0,0,0
73977390000000,73977921000000,531.0,4096,69,69,118889,118957,951654043,952198047,240,62076,0,0,0,0
73977953000000,73978468000000,515.0,4096,70,69,118958,119026,952206044,952750045,266,62146,0,0,0,0
73978500000000,73979015000000,515.0,4096,70,69,119027,119095,952758043,953302043,201,62216,0,0,0,0
73979046000000,73979578000000,532.0,4096,69,69,119096,119164,953310043,953854043,313,62285,0,0,0,0
73979609000000,73980125000000,516.0,4096,69,68,119165,119232,953862043,954398045,307,62354,0,0,0,0
73980156000000,73980671000000,515.0,4096,70,69,119233,119301,954406043,954950045,314,62424,0,0,0,0
73980718000000,73981218000000,500.0,4096,69,68,119302,119369,954958043,955494044,193,62493,0,0,0,0
73981234000000,73981765000000,531.0,4096,70,69,119370,119438,955502043,956046045,305,62563,0,0,0,0
73981812000000,73982328000000,516.0,4096,70,69,119439,119507,956054043,956598043,405,62633,0,0,0,0
73982375000000,73982859000000,484.0,4096,69,68,119508,119575,956606043,957142043,200,62702,0,0,0,0
73982890000000,73983421000000,531.0,4096,70,70,119576,119645,957150043,957702044,1819,62772,0,0,0,0
73983656000000,73983968000000,312.0,4096,69,68,119646,119713,957710043,958246043,236,62841,0,0,0,0
73984000000000,73984500000000,500.0,4096,69,68,119714,119781,958254045,958790043,252,62910,0,0,0,0
73984546000000,73985062000000,516.0,4096,69,69,119782,119850,958798046,959342045,204,62979,0,0,0,0
73985093000000,73985609000000,516.0,4096,69,68,119851,119918,959350045,959886043,251,63048,0,0,0,0
73985640000000,73986156000000,516.0,4096,70,69,119919,119987,959894043,960438043,292,63118,0,0,0,0
73986187000000,73986703000000,516.0,4096,70,68,119988,120055,960446043,960982043,193,63188,0,0,0,0
73986718000000,73987250000000,532.0,4096,70,69,120056,120124,960990043,961534046,232,63258,0,0,0,0
73987281000000,73987796000000,515.0,4096,70,69,120125,120193,961542043,962086043,512,63328,0,0,0,0
73987875000000,73988359000000,484.0,4096,70,69,120194,120262,962094045,962638046,252,63398,0,0,0,0
73988390000000,73988906000000,516.0,4096,69,69,120263,120331,962646043,963190044,154,63467,0,0,0,0
73988937000000,73989468000000,531.0,4096,70,69,120332,120400,963198043,963742043,237,63537,0,0,0,0
73989500000000,73990015000000,515.0,4096,70,69,120401,120469,963750046,964294043,212,63607,0,0,0,0
73990046000000,73990578000000,532.0,4096,70,70,120470,120539,964302043,964854043,170,63677,0,0,0,0
73990593000000,73991125000000,532.0,4096,69,68,120540,120607,964862046,965398045,252,63746,0,0,0,0
73991156000000,73991671000000,515.0,4096,71,69,120608,120676,965406043,965950043,261,63817,0,0,0,0
73991703000000,73992218000000,515.0,4096,69,69,120677,120745,965958043,966502043,181,63886,0,0,0,0
73992250000000,73992765000000,515.0,4096,70,69,120746,120814,966510044,967054043,284,63956,0,0,0,0
73992812000000,73993328000000,516.0,4096,70,69,120815,120883,967062043,967606046,320,64026,0,0,0,0
73993359000000,73993890000000,531.0,4096,70,70,120884,120953,967614043,968166043,258,64096,0,0,0,0
73993921000000,73994421000000,500.0,4096,69,68,120954,121021,968174043,968710044,197,64165,0,0,0,0
73994453000000,73994984000000,531.0,4096,70,69,121022,121090,968718043,969262043,226,64235,0,0,0,0
73995015000000,73995546000000,531.0,4096,70,70,121091,121160,969270044,969822043,230,64305,0,0,0,0
73995562000000,73996078000000,516.0,4096,69,68,121161,121228,969830047,970366043,145,64374,0,0,0,0
73996109000000,73996625000000,516.0,4096,70,68,121229,121296,970374043,970910043,243,64444,0,0,0,0
73996656000000,73997171000000,515.0,4096,70,69,121297,121365,970918043,971462047,212,64514,0,0,0,0
73997203000000,73997734000000,531.0,4096,69,69,121366,121434,971470043,972014043,250,64583,0,0,0,0
73997765000000,73998281000000,516.0,4096,69,68,121435,121502,972022044,972558043,237,64652,0,0,0,0
73998312000000,73998828000000,516.0,4096,70,69,121503,121571,972566046,973110044,281,64722,0,0,0,0
73998859000000,73999375000000,516.0,4096,69,69,121572,121640,973118046,973662043,303,64791,0,0,0,0
73999421000000,73999937000000,516.0,4096,70,69,121641,121709,973670044,974214044,212,64861,0,0,0,0
73999968000000,74000484000000,516.0,4096,70,69,121710,121778,974222043,974766043,272,64931,0,0,0,0
74000531000000,74001031000000,500.0,4096,69,69,121779,121847,974774043,975318043,315,65000,0,0,0,0
74001078000000,74001593000000,515.0,4096,71,69,121848,121916,975326043,975870043,284,65071,0,0,0,0
74001625000000,74002140000000,515.0,4096,70,69,121917,121985,975878046,976422043,152,65141,0,0,0,0
74002156000000,74002687000000,531.0,4096,69,68,121986,122053,976430044,976966043,309,65210,0,0,0,0
74002734000000,74003250000000,516.0,4096,70,70,122054,122123,976974045,977526047,230,65280,0,0,0,0
74003265000000,74003796000000,531.0,4096,70,69,122124,122192,977534043,978078043,1880,65350,0,0,0,0
74004046000000,74004343000000,297.0,4096,69,68,122193,122260,978086045,978622043,172,65419,0,0,0,0
74004359000000,74004890000000,531.0,4096,69,69,122261,122329,978630044,979174043,286,65488,0,0,0,0
74004937000000,74005437000000,500.0,4096,69,68,122330,122397,979182044,979718046,239,65557,0,0,0,0
74005468000000,74006000000000,532.0,4096,71,70,122398,122467,979726043,980278045,210,65628,0,0,0,0
74006015000000,74006546000000,531.0,4096,70,68,122468,122535,980286045,980822043,221,65698,0,0,0,0
74006578000000,74007093000000,515.0,4096,70,69,122536,122604,980830044,981374043,233,65768,0,0,0,0
74007125000000,74007640000000,515.0,4096,69,68,122605,122672,981382043,981918043,241,65837,0,0,0,0
74007671000000,74008203000000,532.0,4096,70,70,122673,122742,981926043,982478047,300,65907,0,0,0,0
74008234000000,74008750000000,516.0,4096,70,69,122743,122811,982486043,983030043,228,65977,0,0,0,0
74008781000000,74009296000000,515.0,4096,69,68,122812,122879,983038043,983574046,389,66046,0,0,0,0
74009343000000,74009859000000,516.0,4096,70,70,122880,122949,983582043,984134043,176,66116,0,0,0,0
74009875000000,74010390000000,515.0,4096,69,68,122950,123017,984142046,984678043,273,66185,0,0,0,0
74010437000000,74010937000000,500.0,4096,69,68,123018,123085,984686043,985222043,232,66254,0,0,0,0
74010968000000,74011500000000,532.0,4096,70,69,123086,123154,985230043,985774045,222,66324,0,0,0,0
74011531000000,74012046000000,515.0,4096,70,69,123155,123223,985782043,986326043,226,66394,0,0,0,0
74012078000000,74012593000000,515.0,4096,69,68,123224,123291,986334044,986870044,380,66463,0,0,0,0
74012640000000,74013140000000,500.0,4096,69,69,123292,123360,986878044,987422043,297,66532,0,0,0,0
74013171000000,74013687000000,516.0,4096,70,69,123361,123429,987430043,987974043,300,66602,0,0,0,0
74013734000000,74014234000000,500.0,4096,69,68,123430,123497,987982044,988518043,290,66671,0,0,0,0
74014281000000,74014781000000,500.0,4096,69,68,123498,123565,988526044,989062044,302,66740,0,0,0,0
74014828000000,74015343000000,515.0,4096,70,70,123566,123635,989070045,989622046,336,66810,0,0,0,0
74015375000000,74015890000000,515.0,4096,69,68,123636,123703,989630043,990166043,229,66879,0,0,0,0
74015921000000,74016421000000,500.0,4096,70,68,123704,123771,990174045,990710044,295,66949,0,0,0,0
74016468000000,74016968000000,500.0,4096,69,68,123772,123839,990718043,991254046,224,67018,0,0,0,0
74017000000000,74017531000000,531.0,4096,70,70,123840,123909,991262045,991814046,353,67088,0,0,0,0
74017578000000,74018078000000,500.0,4096,69,68,123910,123977,991822043,992358044,167,67157,0,0,0,0
74018093000000,74018625000000,532.0,4096,69,68,123978,124045,992366045,992902043,268,67226,0,0,0,0
74018656000000,74019171000000,515.0,4096,70,70,124046,124115,992910043,993462046,221,67296,0,0,0,0
74019218000000,74019734000000,516.0,4096,69,68,124116,124183,993470043,994006043,180,67365,0,0,0,0
74019750000000,74020281000000,531.0,4096,70,69,124184,124252,994014045,994558043,280,67435,0,0,0,0
74020312000000,74020828000000,516.0,4096,69,69,124253,124321,994566043,995110043,251,67504,0,0,0,0
74020859000000,74021375000000,516.0,4096,70,68,124322,124389,995118047,995654045,309,67574,0,0,0,0
74021406000000,74021921000000,515.0,4096,69,68,124390,124457,995662043,996198043,227,67643,0,0,0,0
74021953000000,74022468000000,515.0,4096,69,69,124458,124526,996206043,996750043,225,67712,0,0,0,0
74022500000000,74023015000000,515.0,4096,69,68,124527,124594,996758043,997294043,269,67781,0,0,0,0
74023062000000,74023562000000,500.0,4096,70,69,124595,124663,997302045,997846043,203,67851,0,0,0,0
74023593000000,74024109000000,516.0,4096,69,69,124664,124732,997854043,998398044,242,67920,0,0,0,0
74024140000000,74024656000000,516.0,4096,69,68,124733,124800,998406043,998942044,2015,67989,0,0,0,0
74024937000000,74025218000000,281.0,4096,70,69,124801,124869,998950043,999494043,228,68059,0,0,0,0
74025234000000,74025765000000,531.0,4096,69,68,124870,124937,999502043,1000038046,185,68128,0,0,0,0
74025781000000,74026312000000,531.0,4096,69,69,124938,125006,1000046047,1000590044,419,68197,0,0,0,0
74026359000000,74026843000000,484.0,4096,69,66,125007,125072,1000598043,1001118043,243,68266,0,0,0,0
74026875000000,74027375000000,500.0,4096,68,67,125073,125139,1001126046,1001654047,149,68334,0,0,0,0
74027390000000,74027921000000,531.0,4096,69,69,125140,125208,1001662043,1002206043,281,68403,0,0,0,0
74027953000000,74028468000000,515.0,4096,68,67,125209,125275,1002214043,1002742043,228,68471,0,0,0,0
74028484000000,74029000000000,516.0,4096,69,68,125276,125343,1002750045,1003286047,273,68540,0,0,0,0
74029046000000,74029562000000,516.0,4096,69,69,125344,125412,1003294045,1003838043,234,68609,0,0,0,0
74029593000000,74030093000000,500.0,4096,69,68,125413,125480,1003846043,1004382046,166,68678,0,0,0,0
74030125000000,74030640000000,515.0,4096,68,67,125481,125547,1004390045,1004918047,269,68746,0,0,0,0
74030671000000,74031187000000,516.0,4096,69,69,125548,125616,1004926047,1005470045,248,68815,0,0,0,0
74031218000000,74031718000000,500.0,4096,69,67,125617,125683,1005478045,1006006044,186,68884,0,0,0,0
74031750000000,74032265000000,515.0,4096,68,67,125684,125750,1006014043,1006542046,260,68952,0,0,0,0
74032296000000,74032828000000,532.0,4096,69,69,125751,125819,1006550044,1007094047,458,69021,0,0,0,0
74032875000000,74033343000000,468.0,4096,68,67,125820,125886,1007102046,1007630043,205,69089,0,0,0,0
74033375000000,74033890000000,515.0,4096,68,67,125887,125953,1007638047,1008166047,230,69157,0,0,0,0
74033921000000,74034437000000,516.0,4096,69,69,125954,126022,1008174043,1008718043,299,69226,0,0,0,0
74034468000000,74034968000000,500.0,4096,68,67,126023,126089,1008726046,1009254044,158,69294,0,0,0,0
74034984000000,74035500000000,516.0,4096,68,67,126090,126156,1009262043,1009790047,306,69362,0,0,0,0
74035546000000,74036062000000,516.0,4096,69,69,126157,126225,1009798044,1010342043,324,69431,0,0,0,0
74036093000000,74036593000000,500.0,4096,68,66,126226,126291,1010350046,1010870045,221,69499,0,0,0,0
74036625000000,74037125000000,500.0,4096,68,67,126292,126358,1010878043,1011406043,246,69567,0,0,0,0
74037156000000,74037671000000,515.0,4096,69,69,126359,126427,1011414044,1011958045,358,69636,0,0,0,0
74037718000000,74038218000000,500.0,4096,68,67,126428,126494,1011966047,1012494043,190,69704,0,0,0,0
74038234000000,74038750000000,516.0,4096,68,67,126495,126561,1012502043,1013030043,271,69772,0,0,0,0
74038781000000,74039281000000,500.0,4096,68,67,126562,126628,1013038045,1013566045,500,69840,0,0,0,0
74039359000000,74039828000000,469.0,4096,69,69,126629,126697,1013574043,1014118043,242,69909,0,0,0,0
74039859000000,74040375000000,516.0,4096,68,67,126698,126764,1014126044,1014654043,264,69977,0,0,0,0
74040406000000,74040906000000,500.0,4096,68,67,126765,126831,1014662045,1015190043,284,70045,0,0,0,0
74040937000000,74041453000000,516.0,4096,68,67,126832,126898,1015198043,1015726043,246,70113,0,0,0,0
74041484000000,74041984000000,500.0,4096,69,68,126899,126966,1015734045,1016270047,304,70182,0,0,0,0
74042031000000,74042531000000,500.0,4096,69,68,126967,127034,1016278047,1016814043,273,70251,0,0,0,0
74042562000000,74043078000000,516.0,4096,68,68,127035,127102,1016822045,1017358043,158,70319,0,0,0,0
74043093000000,74043609000000,516.0,4096,68,67,127103,127169,1017366046,1017894046,260,70387,0,0,0,0
74043640000000,74044156000000,516.0,4096,69,68,127170,127237,1017902044,1018438043,166,70456,0,0,0,0
74044187000000,74044703000000,516.0,4096,68,68,127238,127305,1018446044,1018982043,2201,70524,0,0,0,0
74045000000000,74045250000000,250.0,4096,69,68,127306,127373,1018990043,1019526043,288,70593,0,0,0,0
74045281000000,74045781000000,500.0,4096,69,68,127374,127441,1019534043,1020070043,337,70662,0,0,0,0
74045828000000,74046328000000,500.0,4096,68,68,127442,127509,1020078043,1020614046,239,70730,0,0,0,0
74046359000000,74046859000000,500.0,4096,69,66,127510,127575,1020622043,1021142044,268,70799,0,0,0,0
74046890000000,74047406000000,516.0,4096,68,67,127576,127642,1021150044,1021678043,193,70867,0,0,0,0
74047421000000,74047953000000,532.0,4096,69,69,127643,127711,1021686047,1022230047,270,70936,0,0,0,0
74047984000000,74048484000000,500.0,4096,68,67,127712,127778,1022238043,1022766043,267,71004,0,0,0,0
74048515000000,74049015000000,500.0,4096,68,67,127779,127845,1022774045,1023302047,248,71072,0,0,0,0
74049062000000,74049578000000,516.0,4096,69,69,127846,127914,1023310044,1023854047,229,71141,0,0,0,0
74049593000000,74050109000000,516.0,4096,68,67,127915,127981,1023862043,1024390045,227,71209,0,0,0,0
74050140000000,74050640000000,500.0,4096,68,67,127982,128048,1024398043,1024926045,307,71277,0,0,0,0
74050687000000,74051187000000,500.0,4096,68,68,128049,128116,1024934044,1025470043,167,71345,0,0,0,0
74051218000000,74051718000000,500.0,4096,69,67,128117,128183,1025478043,1026006047,218,71414,0,0,0,0
74051750000000,74052265000000,515.0,4096,68,67,128184,128250,1026014043,1026542047,216,71482,0,0,0,0
74052281000000,74052812000000,531.0,4096,68,68,128251,128318,1026550047,1027086047,395,71550,0,0,0,0
74052859000000,74053343000000,484.0,4096,69,68,128319,128386,1027094047,1027630043,284,71619,0,0,0,0
74053390000000,74053890000000,500.0,4096,68,67,128387,128453,1027638044,1028166043,217,71687,0,0,0,0
74053906000000,74054421000000,515.0,4096,69,68,128454,128521,1028174043,1028710046,183,71756,0,0,0,0
74054453000000,74054968000000,515.0,4096,68,68,128522,128589,1028718045,1029254047,252,71824,0,0,0,0
74055015000000,74055515000000,500.0,4096,68,67,128590,128656,1029262043,1029790043,217,71892,0,0,0,0
74055546000000,74056046000000,500.0,4096,69,68,128657,128724,1029798045,1030334047,178,71961,0,0,0,0
74056078000000,74056593000000,515.0,4096,69,68,128725,128792,1030342046,1030878043,360,72030,0,0,0,0
74056640000000,74057125000000,485.0,4096,68,67,128793,128859,1030886047,1031414043,153,72098,0,0,0,0
74057156000000,74057671000000,515.0,4096,68,67,128860,128926,1031422046,1031950043,256,72166,0,0,0,0
74057703000000,74058218000000,515.0,4096,69,69,128927,128995,1031958047,1032502045,350,72235,0,0,0,0
74058265000000,74058765000000,500.0,4096,69,68,128996,129063,1032510046,1033046043,258,72304,0,0,0,0
74058796000000,74059296000000,500.0,4096,68,67,129064,129130,1033054045,1033582043,245,72372,0,0,0,0
74059343000000,74059843000000,500.0,4096,69,69,129131,129199,1033590044,1034134046,222,72441,0,0,0,0
74059875000000,74060390000000,515.0,4096,68,67,129200,129266,1034142044,1034670046,204,72509,0,0,0,0
74060421000000,74060921000000,500.0,4096,68,67,129267,129333,1034678046,1035206046,288,72577,0,0,0,0
74060968000000,74061468000000,500.0,4096,69,68,129334,129401,1035214043,1035750043,264,72646,0,0,0,0
74061500000000,74062015000000,515.0,4096,69,68,129402,129469,1035758043,1036294046,204,72715,0,0,0,0
74062031000000,74062546000000,515.0,4096,68,67,129470,129536,1036302046,1036830043,317,72783,0,0,0,0
74062593000000,74063093000000,500.0,4096,68,68,129537,129604,1036838046,1037374043,265,72851,0,0,0,0
74063125000000,74063625000000,500.0,4096,68,67,129605,129671,1037382043,1037910043,163,72919,0,0,0,0
74063656000000,74064171000000,515.0,4096,68,67,129672,129738,1037918043,1038446043,247,72987,0,0,0,0
74064203000000,74064718000000,515.0,4096,69,69,129739,129807,1038454046,1038998046,263,73056,0,0,0,0
74064750000000,74065250000000,500.0,4096,68,67,129808,129874,1039006044,1039534043,2246,73124,0,0,0,0
74065546000000,74065796000000,250.0,4096,68,67,129875,129941,1039542043,1040070043,359,73192,0,0,0,0
74065843000000,74066343000000,500.0,4096,69,69,129942,130010,1040078043,1040622043,251,73261,0,0,0,0
74066375000000,74066875000000,500.0,4096,69,66,130011,130076,1040630043,1041150043,192,73330,0,0,0,0
74066890000000,74067406000000,516.0,4096,68,67,130077,130143,1041158047,1041686043,215,73398,0,0,0,0
74067437000000,74067953000000,516.0,4096,68,68,130144,130211,1041694045,1042230043,260,73466,0,0,0,0
74067984000000,74068484000000,500.0,4096,68,67,130212,130278,1042238044,1042766043,217,73534,0,0,0,0
74068515000000,74069031000000,516.0,4096,69,68,130279,130346,1042774046,1043310044,296,73603,0,0,0,0
74069062000000,74069578000000,516.0,4096,68,68,130347,130414,1043318045,1043854043,166,73671,0,0,0,0
74069593000000,74070109000000,516.0,4096,68,67,130415,130481,1043862043,1044390047,254,73739,0,0,0,0
74070140000000,74070640000000,500.0,4096,68,67,130482,130548,1044398043,1044926043,223,73807,0,0,0,0
74070671000000,74071187000000,516.0,4096,68,67,130549,130615,1044934046,1045462047,161,73875,0,0,0,0
74071203000000,74071734000000,531.0,4096,69,68,130616,130683,1045470043,1046006044,263,73944,0,0,0,0
74071765000000,74072265000000,500.0,4096,68,67,130684,130750,1046014043,1046542046,222,74012,0,0,0,0
74072296000000,74072796000000,500.0,4096,68,67,130751,130817,1046550046,1047078043,333,74080,0,0,0,0
74072843000000,74073343000000,500.0,4096,68,68,130818,130885,1047086043,1047622046,253,74148,0,0,0,0
74073375000000,74073890000000,515.0,4096,69,68,130886,130953,1047630047,1048166043,241,74217,0,0,0,0
74073921000000,74074421000000,500.0,4096,69,68,130954,131021,1048174047,1048710044,159,74286,0,0,0,0
74074453000000,74074968000000,515.0,4096,68,68,131022,131089,1048718043,1049254044,333,74354,0,0,0,0
74075015000000,74075515000000,500.0,4096,68,67,131090,131156,1049262043,1049790046,216,74422,0,0,0,0
74075546000000,74076062000000,516.0,4096,69,68,131157,131224,1049798046,1050334043,166,74491,0,0,0,0
74076078000000,74076593000000,515.0,4096,69,68,131225,131292,1050342046,1050878043,336,74560,0,0,0,0
74076640000000,74077125000000,485.0,4096,68,67,131293,131359,1050886043,1051414045,281,74628,0,0,0,0
74077171000000,74077671000000,500.0,4096,69,68,131360,131427,1051422047,1051958043,250,74697,0,0,0,0
74077703000000,74078218000000,515.0,4096,68,67,131428,131494,1051966043,1052494043,208,74765,0,0,0,0
74078234000000,74078765000000,531.0,4096,68,68,131495,131562,1052502043,1053038046,230,74833,0,0,0,0
74078781000000,74079296000000,515.0,4096,69,68,131563,131630,1053046047,1053582043,325,74902,0,0,0,0
74079343000000,74079843000000,500.0,4096,68,67,131631,131697,1053590047,1054118046,251,74970,0,0,0,0
74079875000000,74080390000000,515.0,4096,68,68,131698,131765,1054126043,1054662046,258,75038,0,0,0,0
74080421000000,74080921000000,500.0,4096,69,68,131766,131833,1054670046,1055206043,179,75107,0,0,0,0
74080953000000,74081484000000,531.0,4096,68,66,131834,131902,1055214047,1055758043,267,75175,1,0,1,3
74081515000000,74082046000000,531.0,4096,67,67,131903,131974,1055766043,1056334043,275,75242,2,1,3,8
74082093000000,74082593000000,500.0,4096,68,67,131975,132041,1056342043,1056870046,292,75310,2,1,3,8
74082625000000,74083140000000,515.0,4096,69,68,132042,132109,1056878046,1057414043,168,75379,2,1,3,8
74083156000000,74083671000000,515.0,4096,68,68,132110,132177,1057422043,1057958043,226,75447,2,1,3,8
74083703000000,74084218000000,515.0,4096,69,68,132178,132245,1057966046,1058502043,262,75516,2,1,3,8
74084250000000,74084765000000,515.0,4096,69,68,132246,132313,1058510043,1059046044,154,75585,2,1,3,8
74084781000000,74085312000000,531.0,4096,68,68,132314,132381,1059054045,1059590043,2217,75653,2,1,3,8
74085593000000,74085843000000,250.0,4096,68,67,132382,132448,1059598046,1060126043,360,75721,2,1,3,8
74085890000000,74086390000000,500.0,4096,70,68,132449,132516,1060134043,1060670046,171,75791,2,1,3,8
74086406000000,74086921000000,515.0,4096,69,68,132517,132584,1060678043,1061214043,216,75860,2,1,3,8
74086953000000,74087468000000,515.0,4096,68,67,132585,132651,1061222043,1061750043,225,75928,2,1,3,8
74087500000000,74088015000000,515.0,4096,69,68,132652,132719,1061758045,1062294047,195,75997,2,1,3,8
74088031000000,74088546000000,515.0,4096,68,67,132720,132786,1062302045,1062830043,252,76065,2,1,3,8
74088593000000,74089093000000,500.0,4096,68,68,132787,132854,1062838046,1063374043,231,76133,2,1,3,8
74089125000000,74089640000000,515.0,4096,69,68,132855,132922,1063382045,1063918047,228,76202,2,1,3,8
74089671000000,74090171000000,500.0,4096,69,68,132923,132990,1063926043,1064462043,232,76271,2,1,3,8
74090203000000,74090718000000,515.0,4096,68,68,132991,133058,1064470047,1065006046,237,76339,2,1,3,8
74090750000000,74091265000000,515.0,4096,69,68,133059,133126,1065014045,1065550046,154,76408,2,1,3,8
74091281000000,74091796000000,515.0,4096,68,66,133127,133192,1065558043,1066078043,371,76476,2,1,3,8
74091843000000,74092343000000,500.0,4096,68,68,133193,133260,1066086044,1066622043,314,76544,2,1,3,8
74092390000000,74092875000000,485.0,4096,68,67,133261,133327,1066630045,1067158043,217,76612,2,1,3,8
74092906000000,74093421000000,515.0,4096,69,68,133328,133395,1067166047,1067702043,218,76681,2,1,3,8
74093453000000,74093968000000,515.0,4096,68,68,133396,133463,1067710043,1068246043,252,76749,2,1,3,8
74094000000000,74094500000000,500.0,4096,68,67,133464,133530,1068254043,1068782043,187,76817,2,1,3,8
74094531000000,74095031000000,500.0,4096,68,67,133531,133597,1068790046,1069318046,216,76885,2,1,3,8
74095062000000,74095578000000,516.0,4096,68,68,133598,133665,1069326047,1069862046,177,76953,2,1,3,8
74095609000000,74096125000000,516.0,4096,69,68,133666,133733,1069870045,1070406045,215,77022,2,1,3,8
74096156000000,74096671000000,515.0,4096,70,68,133734,133801,1070414043,1070950043,227,77092,2,1,3,8
74096703000000,74097218000000,515.0,4096,68,68,133802,133869,1070958046,1071494043,147,77160,2,1,3,8
74097234000000,74097765000000,531.0,4096,69,68,133870,133937,1071502043,1072038046,297,77229,2,1,3,8
74097796000000,74098296000000,500.0,4096,69,68,133938,134005,1072046047,1072582046,312,77298,2,1,3,8
74098343000000,74098859000000,516.0,4096,69,69,134006,134074,1072590047,1073134043,284,77367,2,1,3,8
74098890000000,74099390000000,500.0,4096,68,67,134075,134141,1073142045,1073670045,167,77435,2,1,3,8
74099406000000,74099937000000,531.0,4096,69,68,134142,134209,1073678045,1074214045,230,77504,2,1,3,8
74099968000000,74100468000000,500.0,4096,68,68,134210,134277,1074222043,1074758047,272,77572,2,1,3,8
74100500000000,74101015000000,515.0,4096,69,68,134278,134345,1074766043,1075302046,229,77641,2,1,3,8
74101046000000,74101546000000,500.0,4096,68,66,134346,134411,1075310043,1075830047,211,77709,2,1,3,8
74101578000000,74102093000000,515.0,4096,69,68,134412,134479,1075838043,1076374045,225,77778,2,1,3,8
74102125000000,74102640000000,515.0,4096,68,68,134480,134547,1076382043,1076918046,307,77846,2,1,3,8
74102671000000,74103171000000,500.0,4096,68,67,134548,134614,1076926047,1077454043,251,77914,2,1,3,8
74103203000000,74103718000000,515.0,4096,69,68,134615,134682,1077462046,1077998043,239,77983,2,1,3,8
74103750000000,74104250000000,500.0,4096,67,67,134683,134749,1078006046,1078534046,189,78050,2,1,3,8
74104281000000,74104796000000,515.0,4096,69,68,134750,134817,1078542043,1079078043,310,78119,2,1,3,8
74104843000000,74105343000000,500.0,4096,69,68,134818,134885,1079086044,1079622045,188,78188,2,1,3,8
74105359000000,74105890000000,531.0,4096,68,68,134886,134953,1079630045,1080166045,1927,78256,2,1,3,8
74106140000000,74106421000000,281.0,4096,69,67,134954,135020,1080174043,1080702044,287,78325,2,1,3,8
74106453000000,74106953000000,500.0,4096,69,67,135021,135087,1080710047,1081238043,216,78394,2,1,3,8
74106984000000,74107500000000,516.0,4096,68,68,135088,135155,1081246043,1081782043,224,78462,2,1,3,8
74107531000000,74108046000000,515.0,4096,68,67,135156,135222,1081790043,1082318044,294,78530,2,1,3,8
74108078000000,74108578000000,500.0,4096,68,67,135223,135289,1082326045,1082854046,159,78598,2,1,3,8
74108593000000,74109125000000,532.0,4096,68,68,135290,135357,1082862043,1083398047,256,78666,2,1,3,8
74109156000000,74109656000000,500.0,4096,68,67,135358,135424,1083406043,1083934045,255,78734,2,1,3,8
74109687000000,74110203000000,516.0,4096,69,68,135425,135492,1083942047,1084478043,171,78803,2,1,3,8
74110218000000,74110750000000,532.0,4096,68,68,135493,135560,1084486045,1085022043,226,78871,2,1,3,8
74110765000000,74111281000000,516.0,4096,68,67,135561,135627,1085030043,1085558044,214,78939,2,1,3,8
74111312000000,74111812000000,500.0,4096,69,67,135628,135694,1085566043,1086094043,253,79008,2,1,3,8
74111859000000,74112359000000,500.0,4096,69,69,135695,135763,1086102043,1086646043,321,79077,2,1,3,8
74112406000000,74112921000000,515.0,4096,70,69,135764,135832,1086654043,1087198043,296,79147,2,1,3,8
74112953000000,74113453000000,500.0,4096,68,67,135833,135899,1087206046,1087734045,162,79215,2,1,3,8
74113484000000,74114000000000,516.0,4096,69,68,135900,135967,1087742044,1088278047,259,79284,2,1,3,8
74114031000000,74114546000000,515.0,4096,69,69,135968,136036,1088286043,1088830046,230,79353,2,1,3,8
74114578000000,74115093000000,515.0,4096,69,68,136037,136104,1088838047,1089374043,156,79422,2,1,3,8
74115109000000,74115625000000,516.0,4096,68,67,136105,136171,1089382044,1089910043,264,79490,2,1,3,8
74115671000000,74116187000000,516.0,4096,69,69,136172,136240,1089918043,1090462047,255,79559,2,1,3,8
74116218000000,74116718000000,500.0,4096,70,68,136241,136308,1090470043,1091006045,151,79629,2,1,3,8
74116750000000,74117265000000,515.0,4096,68,67,136309,136375,1091014046,1091542044,240,79697,2,1,3,8
74117296000000,74117812000000,516.0,4096,69,69,136376,136444,1091550045,1092094043,474,79766,2,1,3,8
74117875000000,74118359000000,484.0,4096,69,68,136445,136512,1092102043,1092638047,229,79835,2,1,3,8
74118390000000,74118906000000,516.0,4096,69,68,136513,136580,1092646043,1093182047,360,79904,2,1,3,8
74118937000000,74119453000000,516.0,4096,69,69,136581,136649,1093190046,1093734046,252,79973,2,1,3,8
74119484000000,74119984000000,500.0,4096,68,67,136650,136716,1093742043,1094270043,194,80041,2,1,3,8
74120015000000,74120531000000,516.0,4096,69,68,136717,136784,1094278044,1094814045,265,80110,2,1,3,8
74120562000000,74121078000000,516.0,4096,68,68,136785,136852,1094822043,1095358043,279,80178,2,1,3,8
74121109000000,74121609000000,500.0,4096,69,67,136853,136919,1095366043,1095894043,175,80247,2,1,3,8
74121640000000,74122156000000,516.0,4096,69,68,136920,136987,1095902044,1096438046,237,80316,2,1,3,8
74122187000000,74122687000000,500.0,4096,67,67,136988,137054,1096446043,1096974046,362,80383,2,1,3,8
74122734000000,74123234000000,500.0,4096,69,68,137055,137122,1096982046,1097518045,215,80452,2,1,3,8
74123265000000,74123781000000,516.0,4096,68,67,137123,137189,1097526043,1098054045,248,80520,2,1,3,8
74123812000000,74124328000000,516.0,4096,70,69,137190,137258,1098062043,1098606043,363,80590,2,1,3,8
74124375000000,74124859000000,484.0,4096,68,68,137259,137326,1098614047,1099150046,256,80658,2,1,3,8
74124906000000,74125406000000,500.0,4096,68,67,137327,137393,1099158045,1099686046,279,80726,2,1,3,8
74125437000000,74125953000000,516.0,4096,69,69,137394,137462,1099694043,1100238043,293,80795,2,1,3,8
74126000000000,74126484000000,484.0,4096,69,66,137463,137528,1100246043,1100766043,1455,80864,2,1,3,8
74126687000000,74127031000000,344.0,4096,69,68,137529,137596,1100774044,1101310043,359,80933,2,1,3,8
74127078000000,74127578000000,500.0,4096,69,68,137597,137664,1101318043,1101854045,294,81002,2,1,3,8
74127609000000,74128109000000,500.0,4096,67,67,137665,137731,1101862043,1102390043,192,81069,2,1,3,8
74128140000000,74128656000000,516.0,4096,69,68,137732,137799,1102398045,1102934043,229,81138,2,1,3,8
74128687000000,74129203000000,516.0,4096,69,68,137800,137867,1102942047,1103478043,313,81207,2,1,3,8
74129234000000,74129734000000,500.0,4096,68,68,137868,137935,1103486047,1104022046,162,81275,2,1,3,8
74129765000000,74130281000000,516.0,4096,68,67,137936,138002,1104030045,1104558046,288,81343,2,1,3,8
74130312000000,74130828000000,516.0,4096,69,68,138003,138070,1104566047,1105102044,413,81412,2,1,3,8
74130875000000,74131359000000,484.0,4096,68,67,138071,138137,1105110043,1105638046,179,81480,2,1,3,8
74131390000000,74131906000000,516.0,4096,69,68,138138,138205,1105646043,1106182047,317,81549,2,1,3,8
74131937000000,74132453000000,516.0,4096,69,68,138206,138273,1106190045,1106726043,236,81618,2,1,3,8
74132484000000,74133000000000,516.0,4096,69,69,138274,138342,1106734043,1107278045,263,81687,2,1,3,8
74133031000000,74133531000000,500.0,4096,68,67,138343,138409,1107286047,1107814045,225,81755,2,1,3,8
74133562000000,74134078000000,516.0,4096,69,68,138410,138477,1107822043,1108358043,225,81824,2,1,3,8
74134109000000,74134625000000,516.0,4096,68,68,138478,138545,1108366047,1108902043,231,81892,2,1,3,8
74134656000000,74135156000000,500.0,4096,68,67,138546,138612,1108910043,1109438043,212,81960,2,1,3,8
74135187000000,74135703000000,516.0,4096,69,68,138613,138680,1109446043,1109982047,255,82029,2,1,3,8
74135734000000,74136234000000,500.0,4096,68,67,138681,138747,1109990047,1110518043,185,82097,2,1,3,8
74136265000000,74136781000000,516.0,4096,69,68,138748,138815,1110526043,1111062045,253,82166,2,1,3,8
74136812000000,74137312000000,500.0,4096,68,67,138816,138882,1111070045,1111598046,174,82234,2,1,3,8
74137343000000,74137859000000,516.0,4096,69,68,138883,138950,1111606043,1112142047,297,82303,2,1,3,8
74137906000000,74138406000000,500.0,4096,68,68,138951,139018,1112150043,1112686044,211,82371,2,1,3,8
74138437000000,74138953000000,516.0,4096,69,68,139019,139086,1112694043,1113230043,202,82440,2,1,3,8
74138984000000,74139484000000,500.0,4096,69,68,139087,139154,1113238045,1113774043,215,82509,2,1,3,8
74139515000000,74140031000000,516.0,4096,68,68,139155,139222,1113782043,1114318043,309,82577,2,1,3,8
74140078000000,74140578000000,500.0,4096,69,68,139223,139290,1114326045,1114862047,233,82646,2,1,3,8
74140609000000,74141125000000,516.0,4096,68,67,139291,139357,1114870044,1115398043,161,82714,2,1,3,8
74141140000000,74141656000000,516.0,4096,69,68,139358,139425,1115406044,1115942043,260,82783,2,1,3,8
74141687000000,74142203000000,516.0,4096,69,68,139426,139493,1115950043,1116486045,265,82852,2,1,3,8
74142234000000,74142750000000,516.0,4096,68,67,139494,139560,1116494043,1117022044,225,82920,2,1,3,8
74142765000000,74143281000000,516.0,4096,68,68,139561,139628,1117030043,1117566045,290,82988,2,1,3,8
74143328000000,74143828000000,500.0,4096,69,68,139629,139696,1117574047,1118110046,386,83057,2,1,3,8
74143875000000,74144359000000,484.0,4096,68,67,139697,139763,1118118046,1118646043,190,83125,2,1,3,8
74144390000000,74144906000000,516.0,4096,68,68,139764,139831,1118654047,1119190043,252,83193,2,1,3,8
74144937000000,74145453000000,516.0,4096,68,67,139832,139898,1119198044,1119726043,328,83261,2,1,3,8
74145484000000,74145984000000,500.0,4096,69,68,139899,139966,1119734043,1120270043,162,83330,2,1,3,8
74146015000000,74146515000000,500.0,4096,69,67,139967,140033,1120278047,1120806043,2036,83399,2,1,3,8
74146781000000,74147062000000,281.0,4096,68,67,140034,140100,1120814045,1121342043,154,83467,2,1,3,8
74147078000000,74147593000000,515.0,4096,68,67,140101,140167,1121350043,1121878043,297,83535,2,1,3,8
74147640000000,74148140000000,500.0,4096,69,69,140168,140236,1121886043,1122430046,289,83604,2,1,3,8
74148187000000,74148687000000,500.0,4096,68,67,140237,140303,1122438043,1122966043,241,83672,2,1,3,8
74148718000000,74149218000000,500.0,4096,68,67,140304,140370,1122974047,1123502047,171,83740,2,1,3,8
74149250000000,74149765000000,515.0,4096,68,67,140371,140437,1123510043,1124038043,252,83808,2,1,3,8
74149796000000,74150296000000,500.0,4096,68,68,140438,140505,1124046043,1124582046,224,83876,2,1,3,8
74150328000000,74150859000000,531.0,4096,69,68,140506,140573,1124590047,1125126043,348,83945,2,1,3,8
74150890000000,74151375000000,485.0,4096,68,66,140574,140639,1125134043,1125654043,217,84013,2,1,3,8
74151406000000,74151921000000,515.0,4096,68,68,140640,140707,1125662043,1126198043,170,84081,2,1,3,8
74151937000000,74152453000000,516.0,4096,69,68,140708,140775,1126206046,1126742045,244,84150,2,1,3,8
74152484000000,74153000000000,516.0,4096,68,67,140776,140842,1126750045,1127278043,280,84218,2,1,3,8
