seq,t_us,rr_ms,hr_bpm,score,flags
1774452,14196158043,912.0,72.1,0.819,169
1774547,14196918045,760.0,72.1,0.426,185
1774655,14197782044,863.0,72.1,0.431,185
1774769,14198694043,911.0,72.1,0.414,185
1774849,14199334047,640.0,72.1,0.516,169
1774906,14199790045,455.0,72.1,0.853,169
1775060,14201022043,1231.0,72.1,0.521,169
1775198,14202126043,1104.0,72.1,0.768,169
1775278,14202766043,640.0,71.8,0.827,73
1775355,14203382043,616.0,71.8,0.857,169
1775487,14204438043,1056.0,71.8,0.561,169
1775630,14205582046,1144.0,71.8,0.802,169
1775731,14206390043,807.0,71.8,0.809,169
1775846,14207310043,920.0,71.8,0.763,169
1775892,14207678043,368.0,71.8,0.526,169
1776010,14208622045,944.0,71.8,0.514,169
1776129,14209574043,951.0,71.8,0.469,185
1776190,14210062043,488.0,71.8,0.806,169
1776304,14210974047,912.0,71.8,0.86,73
1776412,14211838046,863.0,69.4,0.886,73
1776522,14212718043,879.0,68.8,0.881,73
1776630,14213582043,864.0,68.8,0.883,73
1776731,14214390043,808.0,69.4,0.857,73
1776823,14215126047,736.0,69.4,0.828,73
1776998,14216526043,1399.0,69.4,0.791,169
1777081,14217190043,664.0,69.4,0.839,169
1777175,14217942044,752.0,69.4,0.876,169
1777279,14218774043,831.0,69.4,0.867,169
1777394,14219694044,920.0,69.4,0.858,169
1777517,14220678044,984.0,69.4,0.836,73
1777640,14221662047,984.0,69.4,0.866,73
1777755,14222582043,919.0,69.4,0.852,73
1777872,14223518046,936.0,68.2,0.86,73
1777988,14224446045,927.0,65.2,0.856,73
1778094,14225294043,847.0,65.2,0.858,73
1778193,14226086047,792.0,65.2,0.876,73
1778287,14226838043,751.0,65.2,0.8,73
1778439,14228054043,1216.0,65.2,0.49,185
1778578,14229166043,1112.0,65.2,0.771,169
1778682,14229998046,832.0,65.2,0.797,169
1778791,14230870043,871.0,65.2,0.809,169
1778905,14231782045,912.0,65.2,0.856,169
1779013,14232646046,864.0,64.9,0.841,73
1779124,14233534046,888.0,65.2,0.862,73
1779229,14234374043,839.0,67.6,0.864,73
1779335,14235222043,848.0,70.8,0.875,73
1779445,14236102047,880.0,70.8,0.837,73
1779559,14237014043,911.0,70.8,0.902,73
1779673,14237926043,912.0,68.2,0.877,73
1779778,14238766047,840.0,68.2,0.876,73
1779887,14239638047,872.0,68.2,0.878,73
1779989,14240454043,815.0,68.8,0.823,73
1780094,14241294045,840.0,70.8,0.894,73
1780200,14242142043,847.0,70.8,0.878,73
1780312,14243038043,896.0,68.8,0.88,73
1780428,14243966043,928.0,68.8,0.884,73
1780543,14244886046,920.0,68.8,0.897,73
1780651,14245750047,864.0,69.4,0.86,73
1780756,14246590047,840.0,69.4,0.846,73
1780864,14247454043,863.0,69.4,0.837,73
1780971,14248310043,856.0,69.4,0.86,73
1781070,14249102043,792.0,69.4,0.84,73
1781167,14249878045,776.0,69.4,0.841,73
1781352,14251358043,1479.0,69.4,0.783,185
1781442,14252078043,720.0,69.4,0.793,169
1781531,14252790044,712.0,69.4,0.824,169
1781619,14253494043,703.0,69.4,0.867,169
1781707,14254198043,704.0,69.4,0.884,169
1781797,14254918045,720.0,69.4,0.861,169
1781940,14256062044,1143.0,69.4,0.473,185
1782074,14257134043,1071.0,69.4,0.803,169
1782174,14257934044,800.0,70.1,0.787,73
1782270,14258702043,767.0,71.4,0.858,73
1782375,14259542047,840.0,71.4,0.847,73
1782482,14260398047,856.0,71.4,0.845,73
1782584,14261214043,815.0,73.5,0.845,73
1782679,14261974043,760.0,74.4,0.849,73
1782779,14262774044,800.0,75.0,0.865,73
1782883,14263606043,831.0,74.4,0.855,73
1782987,14264438043,832.0,73.5,0.855,73
1783091,14265270047,832.0,72.1,0.864,73
1783201,14266150043,879.0,72.1,0.879,73
1783308,14267006043,856.0,72.1,0.867,73
1783408,14267806046,800.0,72.1,0.86,73
1783510,14268622046,816.0,72.1,0.867,73
1783619,14269494043,871.0,72.1,0.866,73
1783729,14270374043,880.0,72.1,0.869,73
1783845,14271302044,928.0,70.1,0.856,73
1783964,14272254044,952.0,68.8,0.841,73
1784077,14273158048,904.0,68.2,0.825,73
1784183,14274006043,847.0,68.8,0.856,73
1784287,14274838047,832.0,68.8,0.872,73
1784393,14275686043,847.0,68.8,0.866,73
1784504,14276574043,888.0,68.2,0.861,73
1784616,14277470043,896.0,67.6,0.863,73
1784726,14278350047,880.0,67.6,0.858,73
1784831,14279190043,839.0,68.2,0.88,73
1784941,14280070043,880.0,68.2,0.89,73
1785052,14280958047,888.0,68.2,0.883,73
1785163,14281846043,887.0,68.2,0.886,73
1785277,14282758046,912.0,67.6,0.872,73
1785388,14283646046,888.0,67.6,0.879,73
1785505,14284582043,935.0,67.6,0.893,73
1785630,14285582043,1000.0,67.6,0.857,73
1785753,14286566043,984.0,67.6,0.816,73
1785864,14287454047,888.0,67.6,0.829,73
1785974,14288334046,879.0,67.6,0.849,73
1786081,14289190043,855.0,67.6,0.86,73
1786182,14289998046,808.0,67.6,0.871,73
1786285,14290822043,823.0,67.6,0.876,73
1786389,14291654043,832.0,68.2,0.867,73
1786491,14292470043,816.0,70.1,0.848,73
1786596,14293310046,840.0,71.4,0.869,73
1786710,14294222043,911.0,71.4,0.875,73
1786831,14295190043,968.0,71.4,0.875,73
1786953,14296166043,976.0,71.4,0.838,73
1787071,14297110047,944.0,71.4,0.816,73
1787182,14297998043,887.0,67.6,0.809,73
1787284,14298814044,816.0,67.6,0.841,73
1787391,14299670047,856.0,67.6,0.851,73
1787501,14300550045,879.0,67.6,0.848,73
1787620,14301502045,952.0,65.8,0.844,73
1787739,14302454043,951.0,63.6,0.815,73
1787850,14303342044,888.0,67.6,0.843,73
1787960,14304222045,880.0,67.6,0.871,73
1788066,14305070046,848.0,68.2,0.849,73
1788163,14305846043,775.0,68.2,0.863,73
1788263,14306646045,800.0,68.2,0.876,73
1788367,14307478043,831.0,68.2,0.873,73
1788473,14308326043,848.0,70.8,0.853,73
1788590,14309262043,936.0,70.8,0.882,73
1788718,14310286043,1024.0,70.8,0.863,73
1788847,14311318046,1032.0,70.8,0.81,73
1788968,14312286046,968.0,70.8,0.773,169
1789082,14313198047,912.0,70.8,0.792,169
1789136,14313630047,432.0,70.8,0.509,169
1789252,14314558047,928.0,70.8,0.52,169
1789392,14315678043,1119.0,70.8,0.433,185
1789528,14316766043,1088.0,70.8,0.735,169
1789582,14317198044,432.0,70.8,0.511,169
1789736,14318430047,1232.0,70.8,0.761,169
1789844,14319294045,863.0,70.8,0.833,73
1789957,14320198047,904.0,67.7,0.872,73
1790057,14320998043,799.0,67.7,0.785,73
1790159,14321814043,816.0,67.7,0.812,73
1790263,14322646045,832.0,67.7,0.853,73
1790368,14323486043,839.0,67.7,0.868,73
1790480,14324382047,896.0,67.7,0.858,73
1790588,14325246043,863.0,69.4,0.856,73
1790698,14326126048,880.0,69.4,0.846,73
1790809,14327014045,887.0,69.4,0.889,73
1790920,14327902046,888.0,69.4,0.872,73
1791027,14328758045,855.0,69.4,0.834,73
1791133,14329606046,848.0,69.4,0.867,73
1791242,14330478044,871.0,68.8,0.886,73
1791349,14331334043,855.0,68.8,0.845,73
1791454,14332174046,840.0,69.4,0.846,73
1791556,14332990043,815.0,70.1,0.825,73
1791653,14333766044,776.0,70.1,0.829,73
1791800,14334942043,1175.0,70.1,0.455,185
1791932,14335998043,1056.0,70.1,0.776,169
1792026,14336750047,752.0,70.1,0.786,169
1792119,14337494043,743.0,70.1,0.824,169
1792218,14338286043,792.0,70.1,0.841,169
1792317,14339078046,792.0,70.1,0.845,73
1792420,14339902047,824.0,70.8,0.846,73
1792525,14340742047,840.0,71.4,0.866,73
1792632,14341598043,855.0,71.4,0.866,73
1792740,14342462047,864.0,71.4,0.867,73
1792852,14343358043,895.0,71.4,0.858,73
1792960,14344222043,864.0,70.1,0.865,73
1793070,14345102043,880.0,69.4,0.87,73
1793181,14345990047,888.0,69.4,0.861,73
1793291,14346870043,879.0,69.4,0.861,73
1793395,14347702047,832.0,69.4,0.873,73
1793501,14348550043,847.0,69.4,0.885,73
1793608,14349406043,856.0,69.4,0.871,73
1793715,14350262043,856.0,69.4,0.867,73
1793817,14351078044,816.0,70.1,0.859,73
1793921,14351910043,831.0,70.1,0.868,73
1794025,14352742043,832.0,70.8,0.863,73
1794133,14353606046,864.0,70.8,0.864,73
1794238,14354446043,839.0,71.4,0.858,73
1794342,14355278043,832.0,71.4,0.876,73
1794447,14356118043,840.0,71.4,0.879,73
1794553,14356966047,848.0,71.4,0.871,73
1794657,14357798047,832.0,72.1,0.844,73
1794756,14358590043,791.0,72.1,0.855,73
1794859,14359414046,824.0,72.1,0.869,73
1794966,14360270047,856.0,71.4,0.874,73
1795074,14361134043,863.0,71.4,0.862,73
1795180,14361982047,848.0,71.4,0.861,73
1795292,14362878046,895.0,70.8,0.873,73
1795405,14363782043,903.0,70.8,0.832,73
1795515,14364662047,880.0,70.1,0.828,73
1795613,14365446047,784.0,70.1,0.838,73
1795708,14366206046,759.0,70.1,0.862,73
1795811,14367030043,823.0,70.1,0.823,73
1795926,14367950043,920.0,69.4,0.923,73
1796033,14368806047,856.0,70.1,0.836,73
1796127,14369558043,751.0,70.1,0.812,73
1796218,14370286046,728.0,72.8,0.817,73
1796391,14371670044,1383.0,72.8,0.782,169
1796474,14372334045,664.0,72.8,0.809,169
1796564,14373054043,719.0,72.8,0.839,169
1796656,14373790043,736.0,72.8,0.865,169
1796742,14374478047,688.0,72.8,0.857,169
1796827,14375158047,680.0,72.8,0.865,169
1796916,14375870046,711.0,75.2,0.835,73
1797009,14376614043,743.0,76.5,0.872,73
1797102,14377358043,744.0,78.9,0.854,73
1797202,14378158047,800.0,75.2,0.874,73
1797311,14379030043,871.0,75.2,0.854,73
1797426,14379950043,920.0,75.2,0.828,73
1797541,14380870043,920.0,75.2,0.794,73
1797649,14381734043,864.0,75.0,0.79,73
1797757,14382598043,864.0,75.0,0.799,169
1797808,14383006043,408.0,75.0,0.507,169
1797967,14384278043,1272.0,75.0,0.761,169
1798061,14385030047,752.0,75.0,0.785,169
1798159,14385814047,784.0,75.0,0.795,169
1798254,14386574043,759.0,75.0,0.8,169
1798348,14387326046,752.0,75.0,0.833,73
1798448,14388126043,799.0,75.0,0.87,73
1798557,14388998043,872.0,69.4,0.849,73
1798664,14389854047,856.0,69.4,0.844,73
1798770,14390702046,847.0,69.4,0.868,73
1798879,14391574046,872.0,69.4,0.868,73
1798988,14392446043,871.0,69.4,0.857,73
1799094,14393294043,848.0,70.1,0.849,73
1799197,14394118043,824.0,70.8,0.871,73
1799305,14394982043,864.0,70.1,0.877,73
1799408,14395806043,824.0,70.1,0.851,73
1799498,14396526043,720.0,70.8,0.778,73
1799669,14397894043,1368.0,70.8,0.739,169
1799760,14398622045,728.0,70.8,0.799,169
1799848,14399326043,703.0,70.8,0.837,169
1799927,14399958045,632.0,70.8,0.873,169
1800014,14400654045,696.0,70.8,0.867,169
1800144,14401694043,1039.0,70.8,0.513,169
1800283,14402806047,1112.0,70.8,0.76,169
1800375,14403542046,735.0,70.8,0.8,169
1800470,14404302047,760.0,70.8,0.819,73
1800560,14405022043,719.0,70.8,0.819,73
1800648,14405726043,704.0,72.8,0.812,73
1800785,14406822045,1096.0,72.8,0.485,185
1800919,14407894043,1071.0,72.8,0.781,169
1801008,14408606045,712.0,72.8,0.801,169
1801095,14409302046,696.0,72.8,0.829,169
1801179,14409974046,672.0,72.8,0.862,169
1801265,14410662047,688.0,72.8,0.871,169
1801350,14411342044,679.0,72.8,0.824,73
1801434,14412014045,672.0,74.8,0.855,73
1801563,14413046043,1031.0,74.8,0.485,185
1801702,14414158043,1112.0,74.8,0.783,185
1801803,14414966043,808.0,74.8,0.318,185
1801911,14415830047,864.0,74.8,0.801,169
1802013,14416646043,815.0,74.8,0.827,169
1802115,14417462043,816.0,77.1,0.833,73
1802217,14418278047,816.0,77.1,0.84,73
1802318,14419086047,808.0,77.1,0.855,73
1802419,14419894047,808.0,74.8,0.851,73
1802519,14420694046,799.0,75.0,0.849,73
1802616,14421470044,775.0,75.0,0.859,73
1802716,14422270043,799.0,75.0,0.864,73
1802815,14423062045,792.0,75.0,0.856,73
1802909,14423814043,751.0,75.0,0.853,73
1803005,14424582043,768.0,75.0,0.866,73
1803099,14425334043,752.0,75.8,0.865,73
1803195,14426102044,768.0,77.3,0.858,73
1803293,14426886046,784.0,77.3,0.86,73
1803394,14427694043,807.0,77.3,0.872,73
1803494,14428494043,800.0,76.5,0.852,73
1803598,14429326043,832.0,76.5,0.854,73
1803694,14430094046,768.0,78.1,0.798,73
1803787,14430838043,743.0,78.1,0.859,73
1803876,14431550043,712.0,78.1,0.849,73
1803968,14432286043,736.0,78.1,0.865,73
1804065,14433062045,776.0,77.3,0.865,73
1804157,14433798045,736.0,78.1,0.838,73
1804253,14434566047,768.0,78.1,0.857,73
1804348,14435326045,759.0,78.9,0.837,73
1804441,14436070047,744.0,80.6,0.826,73
1804535,14436822043,751.0,80.6,0.825,73
1804623,14437526047,704.0,80.6,0.813,73
1804704,14438174043,647.0,80.6,0.805,73
1804832,14439198045,1024.0,80.6,0.541,169
1804921,14439910043,711.0,80.6,0.53,169
1805009,14440614044,704.0,80.6,0.52,169
1805066,14441070044,456.0,80.6,0.584,185
1805163,14441846043,775.0,80.6,0.813,169
1805262,14442638043,792.0,80.6,0.828,169
1805361,14443430043,792.0,79.9,0.831,73
1805456,14444190045,760.0,79.9,0.825,73
1805544,14444894046,704.0,79.9,0.839,73
1805633,14445606045,711.0,80.6,0.87,73
1805727,14446358043,751.0,80.6,0.882,73
1805827,14447158045,800.0,79.9,0.881,73
1805929,14447974043,815.0,79.9,0.861,73
1806035,14448822043,848.0,79.8,0.842,73
1806142,14449678045,856.0,78.9,0.809,73
1806250,14450542045,864.0,75.0,0.803,73
1806351,14451350043,807.0,74.3,0.797,73
1806453,14452166043,816.0,73.5,0.808,73
1806557,14452998047,832.0,73.5,0.798,73
1806655,14453782043,783.0,73.5,0.808,73
1806746,14454510043,728.0,73.5,0.819,73
1806837,14455238043,728.0,73.5,0.865,73
1806931,14455990045,752.0,74.3,0.879,73
1807025,14456742043,751.0,76.5,0.867,73
1807115,14457462043,720.0,79.8,0.843,73
1807211,14458230045,768.0,79.8,0.868,73
1807303,14458966047,736.0,79.8,0.858,73
1807396,14459710047,744.0,80.6,0.853,73
1807492,14460478044,767.0,80.6,0.858,73
1807588,14461246047,768.0,79.8,0.869,73
1807685,14462022043,775.0,79.8,0.852,73
1807780,14462782046,760.0,78.9,0.861,73
1807882,14463598047,816.0,78.1,0.854,73
1807978,14464366045,767.0,78.1,0.832,73
1808078,14465166045,800.0,78.1,0.848,73
1808176,14465950043,783.0,78.1,0.84,73
1808272,14466718045,768.0,78.1,0.848,73
1808359,14467414043,695.0,78.1,0.812,73
1808446,14468110043,696.0,78.1,0.857,73
1808532,14468798046,688.0,78.1,0.832,73
1808664,14469854045,1055.0,78.1,0.45,185
1808738,14470446043,591.0,78.1,0.523,169
1808867,14471478043,1032.0,78.1,0.807,169
1808960,14472222043,744.0,78.1,0.796,169
1809057,14472998043,776.0,78.1,0.79,169
1809100,14473342043,344.0,78.1,0.487,185
1809248,14474526043,1184.0,78.1,0.739,169
1809339,14475254043,728.0,78.1,0.758,169
1809424,14475934045,680.0,78.1,0.792,169
1809518,14476686044,751.0,78.1,0.83,73
1809613,14477446043,759.0,78.9,0.874,73
1809715,14478262043,816.0,78.9,0.871,73
1809819,14479094046,832.0,78.9,0.832,73
1809926,14479950043,855.0,78.9,0.801,73
1810030,14480782047,832.0,78.9,0.772,73
1810133,14481606047,824.0,73.5,0.771,73
1810229,14482374043,767.0,73.5,0.799,73
1810323,14483126044,752.0,73.5,0.836,73
1810419,14483894047,768.0,73.5,0.864,73
1810514,14484654047,760.0,73.5,0.871,73
1810618,14485486043,831.0,72.8,0.867,73
1810724,14486334043,848.0,72.8,0.856,73
1810834,14487214043,880.0,72.8,0.853,73
1810942,14488078047,864.0,72.8,0.836,73
1811052,14488958043,879.0,72.1,0.823,73
1811157,14489798045,840.0,71.4,0.819,73
1811265,14490662046,864.0,70.8,0.847,73
1811373,14491526043,863.0,69.4,0.839,73
1811481,14492390045,864.0,69.4,0.832,73
1811580,14493182046,792.0,69.4,0.833,73
1811675,14493942043,759.0,69.4,0.847,73
1811767,14494678043,736.0,69.4,0.833,73
1811858,14495406047,728.0,71.4,0.811,73
1812001,14496550043,1143.0,71.4,0.504,169
1812068,14497086046,536.0,71.4,0.852,169
1812204,14498174043,1087.0,71.4,0.878,169
1812320,14499102045,928.0,71.4,0.812,169
1812438,14500046044,943.0,71.4,0.79,169
1812487,14500438044,392.0,71.4,0.476,185
1812675,14501942043,1503.0,71.4,0.283,185
1812800,14502942043,1000.0,71.4,0.846,169
1812920,14503902043,960.0,71.4,0.867,73
1813032,14504798047,896.0,70.6,0.874,73
1813142,14505678047,880.0,70.6,0.876,73
1813241,14506470043,791.0,75.8,0.842,73
1813332,14507198047,728.0,75.8,0.855,73
1813421,14507910046,711.0,78.9,0.832,73
1813552,14508958043,1047.0,78.9,0.452,185
1813637,14509638043,680.0,78.9,0.49,185
1813728,14510366043,728.0,78.9,0.493,185
1813832,14511198043,832.0,78.9,0.467,185
1813887,14511638043,440.0,78.9,0.836,169
1813985,14512422046,784.0,78.9,0.82,169
1814080,14513182043,759.0,79.7,0.846,73
1814182,14513998047,816.0,75.8,0.861,73
1814279,14514774045,775.0,75.8,0.85,73
1814383,14515606045,832.0,75.8,0.859,73
1814490,14516462043,855.0,75.8,0.849,73
1814596,14517310043,848.0,75.8,0.838,73
1814702,14518158043,848.0,73.5,0.811,73
1814798,14518926047,768.0,73.5,0.822,73
1814896,14519710043,783.0,73.5,0.869,73
1815000,14520542043,832.0,72.1,0.86,73
1815102,14521358047,816.0,72.1,0.853,73
1815200,14522142046,783.0,72.1,0.869,73
1815306,14522990046,848.0,72.1,0.873,73
1815406,14523790047,800.0,73.5,0.849,73
1815506,14524590043,799.0,75.0,0.869,73
1815611,14525430045,840.0,75.0,0.876,73
1815717,14526278044,847.0,73.5,0.859,73
1815825,14527142043,863.0,72.1,0.854,73
1815937,14528038047,896.0,71.4,0.851,73
1816045,14528902045,863.0,70.8,0.841,73
1816151,14529750045,848.0,70.8,0.854,73
1816255,14530582043,831.0,70.8,0.848,73
1816356,14531390043,808.0,70.8,0.851,73
1816458,14532206043,816.0,70.8,0.862,73
1816559,14533014043,808.0,70.8,0.86,73
1816661,14533830043,816.0,72.1,0.865,73
1816762,14534638045,808.0,73.5,0.845,73
1816865,14535462043,823.0,73.5,0.856,73
1816968,14536286043,824.0,73.5,0.865,73
1817070,14537102043,816.0,73.5,0.856,73
1817173,14537926045,824.0,73.5,0.86,73
1817277,14538758043,831.0,73.5,0.871,73
1817385,14539622043,864.0,72.8,0.868,73
1817492,14540478043,856.0,72.8,0.845,73
1817595,14541302046,824.0,72.8,0.861,73
1817702,14542158043,855.0,72.8,0.866,73
1817811,14543030046,872.0,72.1,0.862,73
1817925,14543942044,911.0,70.1,0.852,73
1818038,14544846043,903.0,70.1,0.834,73
1818144,14545694043,848.0,70.1,0.845,73
1818248,14546526043,832.0,70.1,0.857,73
1818346,14547310043,784.0,70.1,0.85,73
1818447,14548118043,808.0,70.8,0.865,73
1818549,14548934043,816.0,70.8,0.87,73
1818651,14549750047,816.0,72.1,0.857,73
1818749,14550534043,783.0,73.5,0.835,73
1818845,14551302043,768.0,73.5,0.851,73
1818946,14552110046,808.0,74.3,0.862,73
1819045,14552902043,791.0,74.3,0.849,73
1819141,14553670047,768.0,75.8,0.815,73
1819237,14554438044,767.0,75.8,0.806,73
1819327,14555158046,720.0,76.5,0.789,73
1819489,14556454043,1295.0,76.5,0.771,169
1819567,14557078043,624.0,76.5,0.832,169
1819649,14557734043,656.0,76.5,0.885,169
1819736,14558430047,696.0,76.5,0.887,169
1819827,14559158045,727.0,76.5,0.877,169
1819915,14559862044,703.0,76.5,0.854,169
1819998,14560526044,664.0,78.1,0.826,73
1820084,14561214044,688.0,78.1,0.864,73
1820176,14561950043,735.0,78.1,0.861,73
1820276,14562750043,800.0,78.1,0.861,73
1820381,14563590046,840.0,78.1,0.829,73
1820479,14564374047,784.0,78.1,0.805,73
1820571,14565110046,735.0,78.2,0.836,73
1820669,14565894043,783.0,78.2,0.861,73
1820769,14566694047,800.0,76.5,0.85,73
1820869,14567494047,800.0,76.5,0.838,73
1820961,14568230043,735.0,76.5,0.837,73
1821051,14568950043,720.0,76.5,0.861,73
1821141,14569670047,720.0,76.5,0.863,73
1821231,14570390047,720.0,81.5,0.849,73
1821316,14571070046,679.0,81.5,0.819,73
1821462,14572238043,1167.0,81.5,0.411,185
1821529,14572774043,536.0,81.5,0.53,169
1821620,14573502043,728.0,81.5,0.512,169
1821683,14574006043,504.0,81.5,0.839,169
1821786,14574830046,824.0,81.5,0.859,169
1821888,14575646043,815.0,81.5,0.872,169
1821988,14576446044,800.0,81.5,0.853,73
1822088,14577246043,799.0,81.5,0.836,73
1822188,14578046047,800.0,81.5,0.834,73
1822288,14578846043,799.0,81.5,0.786,73
1822392,14579678043,832.0,78.1,0.796,73
1822489,14580454046,776.0,77.3,0.785,73
1822584,14581214043,759.0,77.3,0.831,73
1822681,14581990045,776.0,77.3,0.829,73
1822781,14582790047,800.0,75.0,0.837,73
1822873,14583526043,735.0,75.0,0.815,73
1822959,14584214045,688.0,77.3,0.855,73
1823044,14584894043,679.0,77.3,0.851,73
1823130,14585582044,688.0,77.3,0.855,169
1823302,14586958043,1375.0,77.3,0.784,185
1823355,14587382043,424.0,77.3,0.454,185
1823479,14588374043,992.0,77.3,0.796,169
1823531,14588790044,416.0,77.3,0.493,185
1823623,14589526043,735.0,77.3,0.493,185
1823765,14590662043,1136.0,77.3,0.761,169
1823862,14591438043,776.0,77.3,0.756,169
1823911,14591830043,392.0,77.3,0.472,185
1824055,14592982043,1152.0,77.3,0.767,185
1824106,14593390043,408.0,77.3,0.479,185
1824160,14593822047,432.0,77.3,0.561,185
1824265,14594662043,839.0,77.3,0.833,169
1824365,14595462046,800.0,77.3,0.847,73
1824461,14596230045,767.0,78.1,0.844,73
1824549,14596934043,703.0,78.9,0.858,73
1824641,14597670043,736.0,81.5,0.866,73
1824733,14598406043,736.0,81.5,0.867,73
1824827,14599158045,752.0,81.5,0.876,73
1824918,14599886043,727.0,81.5,0.854,73
1825008,14600606043,720.0,81.5,0.883,73
1825105,14601382044,776.0,81.5,0.87,73
1825205,14602182043,799.0,81.5,0.866,73
1825306,14602990046,808.0,81.5,0.838,73
1825407,14603798047,808.0,79.8,0.827,73
1825506,14604590043,791.0,77.3,0.81,73
1825597,14605318046,728.0,77.3,0.84,73
1825686,14606030043,711.0,77.3,0.851,73
1825777,14606758043,728.0,77.3,0.862,73
1825867,14607478043,720.0,77.3,0.859,73
1825957,14608198045,720.0,82.4,0.849,73
1826042,14608878043,679.0,82.4,0.841,73
1826124,14609534043,656.0,83.3,0.843,73
1826292,14610878043,1344.0,83.3,0.332,185
1826470,14612302043,1424.0,83.3,0.331,185
1826566,14613070045,768.0,83.3,0.826,169
1826656,14613790043,719.0,83.3,0.826,169
1826749,14614534043,744.0,83.3,0.838,169
1826848,14615326046,792.0,83.3,0.854,73
1826943,14616086043,759.0,83.3,0.86,73
1827045,14616902043,816.0,83.3,0.858,73
1827146,14617710047,808.0,82.9,0.82,73
1827247,14618518043,807.0,82.9,0.808,73
1827344,14619294043,776.0,78.9,0.788,73
1827443,14620086046,792.0,77.3,0.804,73
1827541,14620870043,783.0,76.5,0.802,73
1827636,14621630043,760.0,76.5,0.811,73
1827731,14622390044,760.0,76.5,0.814,73
1827826,14623150046,760.0,76.5,0.843,73
1827925,14623942045,791.0,76.5,0.83,73
1828018,14624686043,743.0,77.3,0.831,73
1828112,14625438047,752.0,78.9,0.871,73
1828210,14626222047,784.0,78.9,0.86,73
1828308,14627006046,783.0,78.9,0.844,73
1828403,14627766043,759.0,78.9,0.829,73
1828498,14628526043,760.0,78.9,0.854,73
1828595,14629302045,776.0,78.9,0.857,73
1828694,14630094047,792.0,77.3,0.838,73
1828792,14630878043,783.0,77.3,0.846,73
1828889,14631654046,776.0,77.3,0.845,73
1828980,14632382043,727.0,77.3,0.843,73
1829074,14633134043,752.0,77.3,0.879,73
1829172,14633918043,784.0,77.3,0.861,73
1829269,14634694043,776.0,77.3,0.867,73
1829364,14635454047,760.0,77.3,0.852,73
1829459,14636214043,759.0,77.3,0.867,73
1829550,14636942047,728.0,78.9,0.852,73
1829640,14637662044,719.0,78.9,0.822,73
1829736,14638430047,768.0,78.9,0.874,73
1829830,14639182047,752.0,78.9,0.868,73
1829921,14639910047,728.0,78.9,0.859,73
1830016,14640670043,759.0,78.9,0.876,73
1830110,14641422043,752.0,79.8,0.86,73
1830204,14642174047,752.0,79.8,0.857,73
1830292,14642878046,703.0,79.8,0.838,73
1830376,14643550043,671.0,79.8,0.829,73
1830509,14644614043,1064.0,79.8,0.457,185
1830549,14644934043,320.0,79.8,0.568,185
1830646,14645710043,776.0,79.8,0.84,169
1830749,14646534046,824.0,79.8,0.849,169
1830852,14647358043,823.0,79.8,0.855,169
1830960,14648222043,864.0,79.8,0.841,169
1831069,14649094046,872.0,79.8,0.793,73
1831175,14649942045,847.0,79.8,0.863,73
1831285,14650822044,879.0,79.8,0.857,73
1831396,14651710043,887.0,79.8,0.818,73
1831503,14652566046,856.0,79.8,0.801,169
1831558,14653006043,439.0,79.8,0.494,185
1831660,14653822046,816.0,79.8,0.498,185
1831815,14655062043,1239.0,79.8,0.318,185
1831922,14655918046,856.0,79.8,0.823,169
1832024,14656734043,815.0,79.8,0.839,73
1832131,14657590043,856.0,71.7,0.873,73
1832246,14658510043,920.0,70.8,0.859,73
1832363,14659446046,936.0,70.1,0.847,73
1832476,14660350043,903.0,68.2,0.819,73
1832583,14661206043,856.0,68.2,0.852,73
1832692,14662078043,872.0,68.2,0.851,73
1832800,14662942043,864.0,68.8,0.836,73
1832907,14663798043,856.0,69.4,0.86,73
1833017,14664678043,880.0,68.8,0.86,73
1833124,14665534047,856.0,68.8,0.861,73
1833230,14666382043,847.0,69.4,0.857,73
1833327,14667158044,776.0,70.1,0.849,73
1833422,14667918043,759.0,70.1,0.849,73
1833519,14668694043,776.0,70.1,0.85,73
1833619,14669494043,800.0,70.8,0.853,73
1833722,14670318044,824.0,72.8,0.835,73
1833868,14671486043,1167.0,72.8,0.451,185
1834013,14672646043,1160.0,72.8,0.324,185
1834120,14673502043,856.0,72.8,0.566,185
1834271,14674710043,1208.0,72.8,0.455,185
1834368,14675486045,776.0,72.8,0.47,185
1834503,14676566043,1079.0,72.8,0.765,169
1834589,14677254043,688.0,75.0,0.807,73
1834677,14677958045,704.0,77.3,0.882,73
1834772,14678718047,760.0,77.3,0.874,73
1834865,14679462045,743.0,77.8,0.849,73
1834958,14680206043,743.0,78.9,0.856,73
1835053,14680966046,760.0,78.9,0.857,73
1835143,14681686046,720.0,78.9,0.842,73
1835229,14682374043,687.0,80.6,0.812,73
1835360,14683422044,1048.0,80.6,0.457,185
1835469,14684294044,872.0,80.6,0.81,169
1835556,14684990047,696.0,80.6,0.815,169
1835640,14685662047,672.0,80.6,0.795,169
1835720,14686302043,639.0,80.6,0.835,169
1835799,14686934044,632.0,80.6,0.862,169
1835881,14687590045,656.0,80.6,0.875,73
1835966,14688270044,679.0,80.6,0.86,73
1836051,14688950043,679.0,80.6,0.865,73
1836134,14689614045,664.0,83.3,0.818,73
1836219,14690294043,679.0,87.2,0.829,73
1836305,14690982043,688.0,87.2,0.86,73
1836395,14691702046,720.0,87.2,0.864,73
1836482,14692398045,695.0,87.2,0.854,73
1836568,14693086043,687.0,87.2,0.864,73
1836658,14693806043,720.0,87.2,0.868,73
1836744,14694494043,688.0,87.2,0.859,73
1836831,14695190047,696.0,87.2,0.893,73
1836920,14695902043,711.0,86.2,0.886,73
1837010,14696622045,720.0,86.2,0.867,73
1837097,14697318043,695.0,86.2,0.857,73
1837180,14697982044,664.0,86.2,0.857,73
1837257,14698598047,616.0,86.2,0.869,73
1837339,14699254046,655.0,86.2,0.874,73
1837421,14699910043,655.0,87.2,0.815,73
1837506,14700590045,680.0,88.2,0.88,73
1837588,14701246047,656.0,90.4,0.833,73
1837857,14703398043,0.0,0.0,0.827,75
1837957,14704198043,800.0,75.0,0.886,73
1838051,14704950043,752.0,77.3,0.848,73
1838150,14705742043,792.0,75.8,0.841,73
1838250,14706542047,800.0,75.4,0.84,73
1838346,14707310043,767.0,75.8,0.844,73
1838443,14708086047,776.0,76.5,0.836,73
1838541,14708870046,783.0,76.5,0.846,73
1838632,14709598044,727.0,76.9,0.85,73
1838724,14710334043,735.0,77.3,0.852,73
1838814,14711054045,720.0,78.1,0.803,73
1838905,14711782043,727.0,78.1,0.83,73
1838997,14712518043,736.0,81.5,0.83,73
1839088,14713246044,728.0,81.5,0.823,73
1839213,14714246043,999.0,81.5,0.527,169
1839317,14715078044,832.0,81.5,0.447,185
1839429,14715974044,896.0,81.5,0.781,169
1839516,14716670043,695.0,81.5,0.831,169
1839606,14717390047,720.0,81.5,0.794,169
1839702,14718158047,768.0,81.5,0.796,169
1839797,14718918045,759.0,82.4,0.764,73
1839891,14719670043,751.0,82.4,0.88,73
1839984,14720414046,744.0,82.4,0.87,73
1840079,14721174044,759.0,81.5,0.869,73
1840175,14721942043,767.0,81.5,0.863,73
1840271,14722710046,768.0,80.6,0.843,73
1840364,14723454044,743.0,80.6,0.858,73
1840457,14724198047,744.0,80.6,0.87,73
1840550,14724942047,744.0,80.6,0.862,73
1840638,14725646043,703.0,80.6,0.87,73
1840731,14726390043,744.0,80.6,0.863,73
1840824,14727134047,744.0,80.6,0.859,73
1840919,14727894043,759.0,80.6,0.864,73
1841015,14728662045,768.0,80.6,0.862,73
1841108,14729406043,743.0,80.6,0.877,73
1841202,14730158047,752.0,80.6,0.768,73
1841298,14730926043,767.0,80.6,0.892,73
1841391,14731670046,744.0,80.6,0.849,73
1841480,14732382043,711.0,80.6,0.876,73
1841572,14733118045,736.0,80.6,0.875,73
1841664,14733854043,735.0,80.6,0.872,73
1841754,14734574043,720.0,80.6,0.873,73
1841841,14735270043,696.0,81.5,0.855,73
1841929,14735974043,704.0,81.5,0.874,73
1842016,14736670045,696.0,83.3,0.865,73
1842103,14737366045,696.0,84.3,0.85,73
1842186,14738030045,664.0,85.2,0.811,73
1842346,14739310043,1279.0,85.2,0.77,185
1842385,14739622043,312.0,85.2,0.473,185
1842493,14740486043,864.0,85.2,0.434,185
1842523,14740726043,240.0,85.2,0.544,189
1842639,14741654043,928.0,85.2,0.445,185
1842736,14742430044,776.0,85.2,0.471,185
1842862,14743438043,1007.0,85.2,0.796,185
1842948,14744126046,688.0,85.2,0.784,185
1843033,14744806044,679.0,85.2,0.757,185
1843090,14745262043,455.0,85.2,0.449,185
1843152,14745758043,496.0,85.2,0.459,185
1843259,14746614046,856.0,85.2,0.461,185
1843346,14747310043,695.0,85.2,0.444,185
1843431,14747990046,680.0,85.2,0.454,185
1843526,14748750043,759.0,85.2,0.411,185
1843605,14749382046,632.0,85.2,0.465,185
1843689,14750054046,672.0,85.2,0.461,185
1843808,14751006043,951.0,85.2,0.796,185
1843860,14751422043,416.0,85.2,0.48,185
1843946,14752110043,688.0,85.2,0.458,185
1844041,14752870043,760.0,85.2,0.422,185
1844081,14753190043,320.0,85.2,0.838,169
1844179,14753974043,784.0,85.2,0.874,169
1844281,14754790044,816.0,85.2,0.875,169
1844389,14755654044,864.0,85.2,0.808,169
1844442,14756078047,424.0,85.2,0.489,185
1844551,14756950043,871.0,85.2,0.456,185
1844602,14757358045,408.0,85.2,0.848,169
1844699,14758134043,775.0,85.2,0.839,169
1844797,14758918043,784.0,85.2,0.868,169
1844895,14759702044,784.0,85.2,0.834,169
1844993,14760486043,783.0,85.2,0.795,169
1845087,14761238043,752.0,85.2,0.785,169
1845176,14761950043,712.0,85.2,0.785,169
1845270,14762702043,752.0,85.2,0.785,169
1845365,14763462047,760.0,85.2,0.314,185
1845462,14764238045,775.0,85.2,0.825,169
1845550,14764942043,703.0,85.2,0.838,169
1845639,14765654043,712.0,85.2,0.857,169
1845733,14766406044,752.0,85.2,0.886,169
1845823,14767126044,720.0,85.2,0.858,169
1845916,14767870045,744.0,85.2,0.906,169
1846001,14768550044,679.0,85.2,0.823,169
1846084,14769214047,664.0,85.2,0.84,169
1846166,14769870045,655.0,85.2,0.841,169
1846255,14770582044,711.0,85.2,0.891,169
1846347,14771318044,736.0,85.2,0.891,169
1846438,14772046043,727.0,85.2,0.876,169
1846528,14772766043,720.0,85.2,0.868,169
1846621,14773510044,744.0,85.2,0.841,169
1846719,14774294043,783.0,85.2,0.802,169
1846771,14774710043,416.0,85.2,0.477,185
1846869,14775494043,784.0,85.2,0.467,185
1846920,14775902043,408.0,85.2,0.534,185
1847009,14776614043,712.0,85.2,0.805,169
1847097,14777318043,704.0,85.2,0.821,169
1847191,14778070043,752.0,85.2,0.851,169
1847290,14778862045,792.0,85.2,0.865,169
1847388,14779646047,784.0,85.2,0.854,169
1847485,14780422044,775.0,85.2,0.802,169
1847582,14781198047,776.0,85.2,0.799,169
1847678,14781966043,767.0,85.2,0.779,169
1847727,14782358043,392.0,85.2,0.473,185
1847814,14783054043,696.0,85.2,0.473,185
1847937,14784038043,984.0,85.2,0.762,169
1848013,14784646043,608.0,85.2,0.801,169
1848089,14785254045,608.0,85.2,0.828,169
1848168,14785886046,632.0,85.2,0.868,169
1848251,14786550044,663.0,85.2,0.854,169
1848338,14787246045,696.0,85.2,0.872,169
1848428,14787966045,720.0,85.2,0.854,169
1848512,14788638045,672.0,85.2,0.84,169
1848596,14789310043,671.0,85.2,0.848,169
1848689,14790054043,744.0,85.2,0.822,169
1848784,14790814043,760.0,85.2,0.793,169
1848882,14791598043,784.0,85.2,0.77,169
1848986,14792430043,832.0,85.2,0.324,185
1849094,14793294047,864.0,85.2,0.854,169
1849196,14794110046,815.0,85.2,0.837,169
1849293,14794886043,775.0,85.2,0.809,169
1849388,14795646043,760.0,85.2,0.81,169
1849484,14796414043,768.0,85.2,0.793,169
1849577,14797158046,744.0,85.2,0.774,169
1849630,14797582043,423.0,85.2,0.461,185
1849761,14798630043,1048.0,85.2,0.775,185
1849764,14798654043,24.0,85.2,0.537,189
1849855,14799382043,728.0,85.2,0.832,169
1849953,14800166044,784.0,85.2,0.862,169
1850055,14800982043,815.0,85.2,0.872,169
1850160,14801822045,840.0,85.2,0.818,169
1850265,14802662043,839.0,85.2,0.781,169
1850365,14803462043,800.0,85.2,0.302,185
1850468,14804286043,824.0,85.2,0.833,169
1850568,14805086043,800.0,85.2,0.856,169
1850665,14805862046,776.0,85.2,0.854,169
1850763,14806646044,783.0,85.2,0.823,169
1850861,14807430047,784.0,85.2,0.796,169
1850961,14808230046,799.0,85.2,0.77,185
1851055,14808982046,752.0,85.2,0.291,185
1851153,14809766045,783.0,85.2,0.827,169
1851247,14810518046,752.0,85.2,0.867,169
1851346,14811310044,791.0,85.2,0.878,169
1851445,14812102045,792.0,85.2,0.844,169
1851545,14812902043,799.0,85.2,0.8,169
1851648,14813726045,824.0,85.2,0.772,169
1851744,14814494044,767.0,85.2,0.258,185
1851856,14815390044,896.0,85.2,0.868,169
1851956,14816190045,800.0,85.2,0.854,169
1852055,14816982047,792.0,85.2,0.813,169
1852148,14817726044,743.0,85.2,0.795,169
1852242,14818478047,752.0,85.2,0.806,169
1852294,14818894043,415.0,85.2,0.498,185
1852392,14819678043,784.0,85.2,0.469,185
1852440,14820062046,384.0,85.2,0.825,169
1852540,14820862043,799.0,85.2,0.856,169
1852641,14821670045,808.0,85.2,0.862,169
1852743,14822486043,815.0,85.2,0.83,169
1852845,14823302043,816.0,85.2,0.799,169
1852900,14823742046,440.0,85.2,0.486,185
1853008,14824606047,864.0,85.2,0.429,185
1853060,14825022044,415.0,85.2,0.871,169
1853165,14825862044,840.0,85.2,0.853,169
1853270,14826702045,840.0,85.2,0.807,169
1853374,14827534045,832.0,85.2,0.783,185
1853426,14827950043,415.0,85.2,0.472,185
1853476,14828350045,400.0,85.2,0.825,169
1853571,14829110043,759.0,85.2,0.845,169
1853664,14829854045,744.0,85.2,0.872,169
1853761,14830630044,775.0,85.2,0.879,169
1853855,14831382043,751.0,85.2,0.84,169
1853952,14832158046,776.0,85.2,0.827,169
1854044,14832894046,736.0,85.2,0.82,169
1854137,14833638045,743.0,85.2,0.789,169
1854189,14834054043,415.0,85.2,0.488,185
1854292,14834878044,824.0,85.2,0.44,185
1854378,14835566047,688.0,85.2,0.439,185
1854467,14836278043,711.0,85.2,0.419,185
1854543,14836886046,608.0,85.2,0.454,185
1854645,14837702047,816.0,85.2,0.421,185
1854727,14838358046,655.0,85.2,0.436,185
1854802,14838958043,599.0,85.2,0.482,185
1854888,14839646043,688.0,85.2,0.478,185
1855016,14840670043,1024.0,85.2,0.786,185
1855100,14841342043,672.0,85.2,0.763,185
1855151,14841750043,408.0,85.2,0.451,185
1855272,14842718047,968.0,85.2,0.796,185
1855362,14843438044,719.0,85.2,0.773,185
1855451,14844150045,712.0,85.2,0.335,185
1855802,14846958043,0.0,0.0,0.806,75
1855881,14847590043,632.0,94.9,0.886,73
1855964,14848254047,664.0,92.6,0.896,73
1856049,14848934044,679.0,90.4,0.876,73
1856130,14849582043,647.0,91.5,0.832,73
1856212,14850238043,656.0,91.5,0.849,73
1856295,14850902043,664.0,90.9,0.862,73
1856381,14851590043,688.0,90.4,0.872,73
1856467,14852278047,688.0,90.4,0.868,73
1856556,14852990043,711.0,90.4,0.864,73
1856648,14853726043,736.0,88.2,0.841,73
1856740,14854462045,736.0,87.2,0.802,73
1856829,14855174043,711.0,87.2,0.817,73
1856922,14855918047,744.0,84.3,0.813,73
1857015,14856662043,743.0,84.3,0.832,73
1857109,14857414044,752.0,81.5,0.787,73
1857199,14858134043,719.0,81.5,0.789,73
1857288,14858846045,712.0,81.5,0.824,73
1857380,14859582047,736.0,81.5,0.826,73
1857473,14860326044,743.0,81.5,0.823,73
1857569,14861094044,768.0,80.6,0.799,73
1857663,14861846043,751.0,80.6,0.82,73
1857758,14862606044,760.0,80.6,0.827,73
1857856,14863390044,784.0,79.8,0.802,73
1857952,14864158047,768.0,79.8,0.78,73
1858045,14864902045,743.0,79.8,0.802,73
1858142,14865678043,775.0,78.9,0.804,73
1858239,14866454043,776.0,78.1,0.804,73
1858334,14867214043,760.0,78.1,0.798,73
1858431,14867990047,776.0,78.1,0.786,73
1858528,14868766043,775.0,77.3,0.787,73
1858625,14869542043,776.0,77.3,0.809,73
1858715,14870262046,720.0,77.3,0.819,73
1858810,14871022043,759.0,77.3,0.809,73
1858905,14871782047,760.0,77.3,0.853,73
1859003,14872566047,784.0,77.3,0.863,73
1859099,14873334043,767.0,78.1,0.815,73
1859193,14874086045,752.0,78.1,0.859,73
1859284,14874814043,727.0,78.9,0.856,73
1859378,14875566043,752.0,78.9,0.87,73
1859470,14876302043,736.0,79.8,0.863,73
1859565,14877062043,760.0,78.9,0.879,73
1859665,14877862047,800.0,78.9,0.875,73
1859763,14878646045,783.0,78.9,0.858,73
1859859,14879414043,767.0,78.9,0.853,73
1859952,14880158046,744.0,79.8,0.85,73
1860041,14880870043,711.0,79.8,0.876,73
1860131,14881590046,720.0,79.8,0.892,73
1860225,14882342045,751.0,79.8,0.878,73
1860316,14883070045,728.0,79.8,0.864,73
1860408,14883806046,736.0,80.6,0.839,73
1860499,14884534043,727.0,81.5,0.857,73
1860593,14885286047,752.0,81.5,0.868,73
1860688,14886046043,759.0,81.5,0.87,73
1860782,14886798043,752.0,81.5,0.874,73
1860871,14887510043,712.0,81.5,0.856,73
1860959,14888214046,704.0,81.5,0.881,73
1861049,14888934046,720.0,82.4,0.874,73
1861136,14889630047,696.0,82.4,0.859,73
1861227,14890358043,727.0,82.4,0.868,73
1861318,14891086043,728.0,82.4,0.882,73
1861412,14891838045,752.0,82.4,0.87,73
1861505,14892582046,744.0,82.4,0.866,73
1861595,14893302043,719.0,83.3,0.853,73
1861686,14894030043,728.0,82.4,0.883,73
1861776,14894750043,720.0,82.4,0.878,73
1861869,14895494043,744.0,82.4,0.871,73
1861962,14896238047,744.0,82.4,0.868,73
1862053,14896966043,727.0,82.4,0.812,73
1862145,14897702046,736.0,81.5,0.887,73
1862241,14898470047,768.0,81.5,0.877,73
1862338,14899246046,775.0,81.5,0.881,73
1862436,14900030043,783.0,80.6,0.858,73
1862527,14900758046,728.0,80.6,0.833,73
1862619,14901494043,735.0,80.6,0.865,73
1862709,14902214046,720.0,81.5,0.868,73
1862799,14902934043,719.0,81.5,0.872,73
1862885,14903622043,688.0,81.5,0.85,73
1862973,14904326046,704.0,82.4,0.862,73
1863062,14905038047,712.0,83.3,0.878,73
1863156,14905790046,751.0,83.3,0.85,73
1863248,14906526046,736.0,83.3,0.892,73
1863340,14907262047,736.0,83.3,0.872,73
1863433,14908006047,744.0,83.3,0.842,73
1863527,14908758043,751.0,81.5,0.851,73
1863614,14909454043,696.0,81.5,0.837,73
1863693,14910086043,632.0,81.5,0.817,73
1863809,14911014045,928.0,81.5,0.481,185
1863919,14911894045,880.0,81.5,0.838,169
1864003,14912566045,672.0,81.5,0.851,169
1864094,14913294043,727.0,81.5,0.835,169
1864912,14919838045,0.0,0.0,0.798,75
1865017,14920678046,840.0,71.4,0.865,73
1865119,14921494047,816.0,72.5,0.847,73
1865215,14922262043,767.0,73.5,0.833,73
1865325,14923142043,880.0,72.5,0.869,73
1865427,14923958046,816.0,73.5,0.858,73
1865532,14924798043,839.0,72.5,0.872,73
1865637,14925638043,840.0,71.4,0.864,73
1865747,14926518045,880.0,71.4,0.891,73
1865848,14927326043,807.0,71.4,0.848,73
1865951,14928150043,824.0,72.8,0.868,73
1866051,14928950043,800.0,72.8,0.78,73
1866148,14929726046,776.0,72.8,0.847,73
1866241,14930470046,744.0,73.5,0.844,73
1866336,14931230045,759.0,74.3,0.827,73
1866429,14931974047,744.0,75.0,0.816,73
1866859,14935414043,0.0,0.0,0.802,75
1866946,14936110043,696.0,86.2,0.852,73
1867036,14936830043,720.0,84.7,0.858,73
1867130,14937582043,752.0,83.3,0.842,73
1867220,14938302044,720.0,83.3,0.833,73
1867314,14939054047,752.0,83.3,0.846,73
1867408,14939806047,752.0,81.5,0.825,73
1867500,14940542043,735.0,81.5,0.839,73
1867589,14941254046,712.0,82.4,0.846,73
1867683,14942006043,751.0,81.5,0.85,73
1867775,14942742047,736.0,81.5,0.845,73
1867868,14943486047,744.0,80.6,0.845,73
1867956,14944190047,704.0,81.5,0.853,73
1868048,14944926043,735.0,81.5,0.862,73
1868132,14945598043,672.0,81.5,0.849,73
1868220,14946302044,704.0,81.5,0.879,73
1869023,14952726043,0.0,0.0,0.777,75
1869115,14953462044,736.0,81.5,0.862,73
1869400,14955742043,0.0,0.0,0.797,75
1869493,14956486043,744.0,80.6,0.863,73
1870491,14964470044,0.0,0.0,0.797,75
1870593,14965286043,815.0,73.5,0.864,73
1870686,14966030047,744.0,76.9,0.811,73
1870777,14966758043,727.0,80.6,0.817,73
1871276,14970750043,0.0,0.0,0.785,75
1871573,14973126043,0.0,0.0,0.802,75
1871673,14973926043,800.0,75.0,0.841,73
1871973,14976326043,0.0,0.0,0.797,75
1872072,14977118043,792.0,75.8,0.856,73
1872167,14977878045,760.0,77.3,0.859,73
1872268,14978686043,807.0,75.8,0.853,73
1872367,14979478043,792.0,75.8,0.86,73
1872459,14980214043,736.0,75.8,0.844,73
1872555,14980982043,768.0,76.9,0.86,73
1872653,14981766047,784.0,76.5,0.85,73
1872753,14982566044,799.0,76.1,0.861,73
1872855,14983382046,816.0,75.8,0.852,73
1872951,14984150043,767.0,76.5,0.846,73
1873602,14989358043,0.0,0.0,0.813,75
1873722,14990318043,960.0,0.0,0.426,185
1873773,14990726043,408.0,0.0,0.886,169
1874300,14994942046,0.0,0.0,0.809,75
1874396,14995710046,768.0,78.1,0.866,73
1874485,14996422043,711.0,81.1,0.852,73
1874587,14997238043,816.0,78.1,0.842,73
1874815,14999062047,0.0,0.0,0.805,75
1874982,15000398044,1335.0,0.0,0.416,185
1875047,15000918046,520.0,0.0,0.873,169
1875163,15001846043,927.0,0.0,0.867,169
1875580,15005182047,0.0,0.0,0.799,75
1875683,15006006043,823.0,72.8,0.867,73
1875790,15006862043,856.0,71.4,0.861,73
1875904,15007774043,912.0,70.1,0.85,73
1876027,15008758043,984.0,67.9,0.825,73
1876159,15009814043,1056.0,67.9,0.79,169
1876206,15010190043,376.0,67.9,0.484,185
1876337,15011238046,1048.0,67.9,0.496,185
1876422,15011918045,679.0,67.9,0.837,169
1876546,15012910043,991.0,67.9,0.855,169
1876674,15013934043,1024.0,69.5,0.877,73
1876802,15014958044,1024.0,67.6,0.855,73
1876927,15015958047,1000.0,65.8,0.822,73
1877038,15016846043,887.0,66.7,0.858,73
1877153,15017766046,920.0,65.8,0.864,73
1877269,15018694045,927.0,65.2,0.86,73
1877388,15019646043,951.0,64.7,0.856,73
1877499,15020534043,888.0,64.7,0.847,73
1877610,15021422043,888.0,65.2,0.882,73
1877724,15022334044,912.0,65.2,0.888,73
1877830,15023182047,848.0,65.8,0.871,73
1877937,15024038046,855.0,67.6,0.875,73
1878053,15024966043,927.0,65.8,0.891,73
1878524,15028734043,0.0,0.0,0.799,75
1882184,15058014043,0.0,0.0,0.831,75
1882286,15058830043,816.0,73.5,0.791,73
1882394,15059694047,864.0,71.4,0.842,73
1882506,15060590043,895.0,69.4,0.862,73
1882613,15061446043,856.0,69.8,0.783,73
1882710,15062222043,776.0,70.1,0.865,73
1883028,15064766044,0.0,0.0,0.848,75
1883134,15065614047,848.0,70.8,0.903,73
1883237,15066438043,823.0,71.8,0.871,73
1883336,15067230043,792.0,72.8,0.851,73
1883434,15068014046,784.0,74.3,0.85,73
1883747,15070518043,0.0,0.0,0.812,75
1883859,15071414043,896.0,67.0,0.868,73
1883977,15072358044,944.0,65.2,0.847,73
1884089,15073254047,896.0,67.0,0.849,73
1884195,15074102044,847.0,67.0,0.897,73
1884300,15074942043,839.0,67.0,0.89,73
1885765,15086662046,0.0,0.0,0.838,75
1885852,15087358043,695.0,86.2,0.882,73
1886121,15089510045,0.0,0.0,0.8,75
1886209,15090214043,703.0,85.2,0.823,73
1886296,15090910047,696.0,85.7,0.68,73
1886380,15091582043,671.0,85.7,0.403,185
1886457,15092198047,616.0,85.7,0.793,169
1886580,15093182046,983.0,85.7,0.538,169
1886683,15094006043,823.0,85.7,0.778,169
1886755,15094582046,576.0,85.7,0.833,169
1886825,15095142043,559.0,85.7,0.879,169
1886894,15095694043,552.0,86.2,0.871,73
1886965,15096262043,568.0,87.0,0.794,73
1887096,15097310047,1048.0,87.0,0.767,169
1887160,15097822045,511.0,87.0,0.835,169
1887222,15098318043,495.0,87.0,0.823,169
1887350,15099342043,1024.0,87.0,0.833,169
1887417,15099878043,536.0,87.0,0.867,169
1887483,15100406043,528.0,87.0,0.859,169
1887620,15101502043,1096.0,87.8,0.774,73
1887688,15102046046,544.0,89.7,0.82,73
1887808,15103006047,960.0,89.7,0.433,185
1887867,15103478043,471.0,89.7,0.526,169
1887943,15104086043,608.0,89.7,0.53,169
1888030,15104782043,696.0,89.7,0.496,185
1888113,15105446043,664.0,89.7,0.501,169
1888199,15106134043,688.0,89.7,0.503,169
1888252,15106558045,424.0,89.7,0.831,169
1888340,15107262043,703.0,91.6,0.857,73
1888424,15107934043,672.0,90.4,0.86,73
1888506,15108590043,656.0,91.5,0.878,73
1888587,15109238047,648.0,91.6,0.886,73
1888666,15109870047,632.0,92.0,0.862,73
1888745,15110502046,631.0,92.6,0.859,73
1888825,15111142046,640.0,92.6,0.884,73
1888908,15111806046,664.0,92.6,0.886,73
1888995,15112502046,696.0,92.0,0.876,73
1889079,15113174043,671.0,91.5,0.868,73
1889163,15113846044,672.0,91.5,0.871,73
1889255,15114582043,735.0,90.4,0.862,73
1889343,15115286043,704.0,89.3,0.841,73
1889432,15115998046,712.0,89.3,0.833,73
1889522,15116718047,720.0,86.2,0.816,73
1889616,15117470047,752.0,85.2,0.812,73
1889708,15118206046,735.0,84.3,0.803,73
1889798,15118926043,719.0,83.3,0.805,73
1889890,15119662043,736.0,83.3,0.807,73
1889981,15120390043,728.0,82.4,0.806,73
1890070,15121102046,712.0,83.3,0.825,73
1890156,15121790043,687.0,83.3,0.823,73
1890244,15122494043,704.0,83.3,0.85,73
1890332,15123198044,704.0,83.3,0.847,73
1890431,15123990043,791.0,83.3,0.829,73
1890524,15124734045,744.0,83.3,0.813,73
1890617,15125478047,744.0,82.4,0.812,73
1890704,15126174043,695.0,84.3,0.817,73
1890788,15126846043,672.0,85.2,0.86,73
1890879,15127574043,728.0,85.2,0.857,73
1890964,15128254043,680.0,85.2,0.856,73
1891053,15128966046,712.0,84.3,0.867,73
1891144,15129694043,727.0,82.4,0.857,73
1891235,15130422043,728.0,82.4,0.857,73
1891327,15131158043,736.0,82.4,0.863,73
1891421,15131910047,752.0,82.4,0.852,73
1891515,15132662043,751.0,82.4,0.847,73
1891604,15133374047,712.0,82.4,0.845,73
1891705,15134182045,807.0,82.4,0.833,73
1891803,15134966043,783.0,81.5,0.823,73
1891908,15135806043,840.0,81.5,0.795,169
1891963,15136246045,440.0,81.5,0.47,185
1892066,15137070043,823.0,81.5,0.455,185
1892167,15137878044,808.0,81.5,0.442,185
1892247,15138518043,639.0,81.5,0.521,169
1892312,15139038043,520.0,81.5,0.808,169
1892404,15139774043,736.0,81.5,0.81,169
1892543,15140886043,1112.0,81.5,0.447,185
1892654,15141774043,888.0,81.5,0.799,169
1892731,15142390043,616.0,80.9,0.834,73
1892806,15142990042,599.0,80.9,0.862,73
1892914,15143854047,864.0,80.9,0.525,169
1895625,15165542045,0.0,0.0,0.793,75
1895736,15166430043,887.0,67.6,0.881,73
1895839,15167254043,824.0,70.1,0.858,73
1895944,15168094043,840.0,71.4,0.871,73
1896049,15168934047,840.0,71.4,0.86,73
1896155,15169782043,847.0,71.4,0.867,73
1896267,15170678045,896.0,71.1,0.87,73
1896374,15171534043,855.0,70.8,0.865,73
1896481,15172390047,856.0,70.4,0.882,73
1896589,15173254043,863.0,70.1,0.863,73
1896694,15174094043,840.0,70.8,0.865,73
1896802,15174958043,864.0,70.1,0.891,73
1897356,15179390043,0.0,0.0,0.798,75
1897464,15180254043,864.0,69.4,0.88,73
1897573,15181126043,872.0,69.1,0.876,73
1897682,15181998047,872.0,68.8,0.879,73
1897792,15182878044,879.0,68.8,0.867,73
1897893,15183686043,807.0,68.8,0.858,73
1897995,15184502046,816.0,69.1,0.869,73
1898095,15185302045,799.0,69.4,0.847,73
1898194,15186094045,792.0,71.4,0.824,73
1898299,15186934043,839.0,71.4,0.845,73
1898841,15191270043,0.0,0.0,0.798,75
1898946,15192110043,840.0,71.4,0.865,73
1899044,15192894047,784.0,73.9,0.848,73
1899145,15193702047,808.0,74.3,0.877,73
1899711,15198230045,0.0,0.0,0.777,75
1899875,15199542043,1311.0,0.0,0.413,185
1899920,15199902043,360.0,0.0,0.84,169
1900064,15201054046,1152.0,0.0,0.471,185
1900202,15202158043,1103.0,0.0,0.806,169
1900292,15202878043,720.0,0.0,0.855,169
1900385,15203622043,744.0,66.7,0.869,73
1900480,15204382043,760.0,72.3,0.871,73
1900572,15205118043,736.0,78.9,0.857,73
1900667,15205878043,760.0,78.9,0.872,73
1901046,15208910043,0.0,0.0,0.796,75
1901142,15209678047,768.0,78.1,0.876,73
1901651,15213750043,0.0,0.0,0.793,75
1901754,15214574043,824.0,72.8,0.86,73
1901853,15215366043,792.0,74.3,0.854,73
1901945,15216102044,736.0,75.8,0.835,73
1902038,15216846043,743.0,78.1,0.852,73
1902129,15217574043,728.0,80.6,0.85,73
1902417,15219878046,0.0,0.0,0.806,75
1902515,15220662047,784.0,76.5,0.868,73
1902610,15221422043,759.0,77.7,0.854,73
1902698,15222126043,704.0,78.9,0.848,73
1902789,15222854045,728.0,80.6,0.857,73
1902882,15223598046,744.0,80.6,0.866,73
1902975,15224342045,743.0,80.6,0.86,73
1903072,15225118043,775.0,80.6,0.86,73
1903171,15225910047,792.0,79.8,0.858,73
1903269,15226694043,783.0,78.9,0.848,73
1903362,15227438047,744.0,80.6,0.85,73
1903456,15228190043,751.0,80.6,0.879,73
1903554,15228974044,784.0,79.8,0.866,73
1903656,15229790044,816.0,77.3,0.853,73
1903754,15230574043,783.0,76.5,0.833,73
1903844,15231294047,720.0,76.5,0.847,73
1903925,15231942047,648.0,76.5,0.817,73
1904013,15232646043,703.0,79.8,0.85,73
1904105,15233382043,736.0,80.6,0.855,73
1904204,15234174044,792.0,79.8,0.874,73
1904632,15237598043,0.0,0.0,0.78,75
1904743,15238486043,888.0,67.6,0.882,73
1904852,15239358043,872.0,68.2,0.874,73
1904961,15240230043,872.0,68.8,0.875,73
1905067,15241078044,848.0,68.8,0.874,73
1905167,15241878045,800.0,68.8,0.831,73
1905268,15242686044,807.0,69.8,0.854,73
1905376,15243550047,864.0,69.4,0.868,73
1905731,15246390043,0.0,0.0,0.781,75
1905848,15247326043,936.0,64.1,0.851,73
1905957,15248198045,872.0,66.4,0.87,73
1906067,15249078047,880.0,68.2,0.879,73
1906172,15249918043,839.0,68.5,0.862,73
1906272,15250718044,800.0,68.8,0.823,73
1906442,15252078043,1359.0,68.8,0.777,169
1906524,15252734046,656.0,68.8,0.863,169
1906615,15253462043,727.0,68.8,0.894,169
1907256,15258590043,0.0,0.0,0.789,75
1907370,15259502043,912.0,65.8,0.864,73
1907479,15260374045,872.0,67.3,0.848,73
1907580,15261182046,808.0,68.8,0.858,73
1907680,15261982043,799.0,71.4,0.834,73
1907773,15262726043,744.0,74.3,0.801,73
1907919,15263894043,1168.0,74.3,0.434,185
1908010,15264622043,728.0,74.3,0.465,185
1908109,15265414043,792.0,74.3,0.464,185
1908209,15266214043,800.0,74.3,0.458,185
1908308,15267006043,792.0,74.3,0.489,185
1908371,15267510044,504.0,74.3,0.832,169
1908481,15268390043,879.0,74.2,0.862,73
1908585,15269222047,832.0,74.2,0.867,73
1908692,15270078043,855.0,73.1,0.882,73
1908802,15270958043,880.0,72.1,0.861,73
1908907,15271798047,840.0,72.1,0.861,73
1909009,15272614043,815.0,73.5,0.859,73
1909116,15273470043,856.0,72.1,0.858,73
1909227,15274358045,888.0,71.4,0.853,73
1909339,15275254047,896.0,70.1,0.842,73
1909446,15276110043,855.0,70.1,0.846,73
1909552,15276958043,848.0,70.1,0.852,73
1909652,15277758044,800.0,70.1,0.855,73
1909748,15278526043,767.0,70.8,0.853,73
1909847,15279318043,792.0,70.8,0.869,73
1909946,15280110045,792.0,70.8,0.86,73
1910047,15280918043,807.0,74.3,0.862,73
1913552,15308958044,0.0,0.0,0.784,75
1913655,15309782043,823.0,72.8,0.872,73
1914314,15315054043,0.0,0.0,0.809,75
1915111,15321430045,0.0,0.0,0.807,75
1917687,15342038043,0.0,0.0,0.797,75
1917768,15342686043,648.0,92.6,0.868,73
1918124,15345534045,0.0,0.0,0.797,75
1918216,15346270046,736.0,81.5,0.871,73
1918307,15346998043,727.0,82.0,0.864,73
1918400,15347742045,744.0,81.5,0.851,73
1918490,15348462043,719.0,82.0,0.856,73
1918585,15349222047,760.0,81.5,0.875,73
1918683,15350006043,783.0,81.1,0.854,73
1918783,15350806043,800.0,80.6,0.839,73
1918879,15351574047,768.0,79.8,0.823,73
1918974,15352334043,759.0,78.9,0.84,73
1919069,15353094043,760.0,78.9,0.861,73
1919163,15353846043,752.0,78.9,0.864,73
1919258,15354606047,760.0,78.9,0.873,73
1919358,15355406043,799.0,78.9,0.856,73
1919458,15356206043,800.0,78.1,0.841,73
1919560,15357022043,816.0,78.1,0.832,73
1919662,15357838045,816.0,78.1,0.807,73
1919763,15358646043,807.0,75.0,0.816,73
1919870,15359502046,856.0,75.0,0.807,73
1919982,15360398043,895.0,75.0,0.798,169
1920027,15360758043,360.0,75.0,0.481,185
1920153,15361766046,1008.0,75.0,0.456,185
1920258,15362606043,839.0,75.0,0.456,185
1921315,15371062043,0.0,0.0,0.799,75
1921421,15371910043,848.0,70.8,0.874,73
1921528,15372766043,856.0,70.4,0.87,73
1921632,15373598043,832.0,70.8,0.865,73
1921736,15374430046,832.0,71.4,0.861,73
1921840,15375262043,831.0,72.1,0.858,73
1921942,15376078045,816.0,72.1,0.861,73
1922041,15376870043,791.0,72.1,0.865,73
1922143,15377686047,816.0,72.1,0.863,73
1922245,15378502046,815.0,72.1,0.839,73
1922349,15379334045,831.0,72.1,0.875,73
1922456,15380190045,856.0,72.1,0.865,73
1922562,15381038043,847.0,72.1,0.861,73
1922661,15381830047,792.0,73.5,0.854,73
1922760,15382622044,791.0,73.5,0.867,73
1922862,15383438045,816.0,73.5,0.877,73
1922964,15384254043,815.0,73.5,0.852,73
1923063,15385046043,792.0,73.5,0.861,73
1923164,15385854043,808.0,73.5,0.865,73
1923265,15386662045,808.0,74.3,0.855,73
1923365,15387462045,800.0,74.3,0.855,73
1923467,15388278045,816.0,74.3,0.867,73
1923569,15389094043,815.0,74.3,0.865,73
1923675,15389942043,848.0,73.5,0.864,73
1923782,15390798046,856.0,73.5,0.847,73
1923880,15391582043,783.0,74.3,0.847,73
1923978,15392366043,784.0,74.3,0.868,73
1924078,15393166046,800.0,74.3,0.869,73
1924178,15393966045,799.0,75.0,0.863,73
1924277,15394758043,791.0,75.0,0.847,73
1924371,15395510043,752.0,75.0,0.865,73
1924469,15396294043,784.0,75.8,0.87,73
1924764,15398654044,0.0,0.0,0.812,75
1924868,15399486043,831.0,72.1,0.875,73
1924977,15400358043,872.0,70.4,0.867,73
1925313,15403046043,0.0,0.0,0.803,75
1925424,15403934043,888.0,67.6,0.893,73
1925531,15404790043,856.0,68.8,0.862,73
1925633,15405606043,816.0,70.1,0.866,73
1925737,15406438047,832.0,71.1,0.856,73
1925837,15407238043,799.0,72.1,0.834,73
1925939,15408054043,816.0,72.8,0.847,73
1926041,15408870045,816.0,73.5,0.846,73
1926144,15409694043,823.0,73.2,0.846,73
1926244,15410494043,800.0,73.5,0.846,73
1926347,15411318043,824.0,73.5,0.857,73
1926453,15412166043,848.0,73.5,0.862,73
1926557,15412998043,832.0,72.8,0.851,73
1926657,15413798047,800.0,73.5,0.848,73
1926757,15414598045,799.0,73.5,0.859,73
1926858,15415406044,807.0,73.5,0.87,73
1926958,15416206043,799.0,74.3,0.841,73
1927054,15416974043,768.0,75.0,0.834,73
1927155,15417782043,808.0,74.3,0.856,73
1927257,15418598043,816.0,74.3,0.859,73
1927359,15419414045,816.0,74.3,0.847,73
1927454,15420174043,759.0,75.0,0.816,73
1927541,15420870043,696.0,75.0,0.827,73
1927684,15422014047,1144.0,75.0,0.431,185
1928700,15430142043,0.0,0.0,0.787,75
1928805,15430982043,840.0,71.4,0.872,73
1928915,15431862044,880.0,69.8,0.868,73
1929027,15432758046,896.0,68.2,0.859,73
1929141,15433670043,911.0,67.6,0.867,73
1929249,15434534043,864.0,68.2,0.866,73
1929356,15435390043,856.0,68.8,0.887,73
1929465,15436262043,872.0,68.8,0.888,73
1929573,15437126043,864.0,69.1,0.88,73
1929678,15437966044,840.0,69.4,0.87,73
1929779,15438774043,807.0,69.4,0.87,73
1929882,15439598045,824.0,69.4,0.874,73
1930327,15443158046,0.0,0.0,0.78,75
1930433,15444006043,847.0,70.8,0.878,73
1930543,15444886043,880.0,69.4,0.886,73
1930650,15445742043,856.0,70.1,0.863,73
1930760,15446622043,880.0,69.1,0.888,73
1930871,15447510043,888.0,68.2,0.889,73
1930980,15448382043,872.0,68.5,0.871,73
1931082,15449198047,816.0,68.8,0.87,73
1931190,15450062047,864.0,69.1,0.882,73
1931508,15452606043,0.0,0.0,0.786,75
1931611,15453430043,824.0,72.8,0.869,73
1931709,15454214043,784.0,74.6,0.853,73
1931808,15455006047,792.0,75.8,0.868,73
1931907,15455798044,791.0,75.8,0.869,73
1932002,15456558043,759.0,75.8,0.848,73
1932098,15457326045,768.0,76.1,0.856,73
1932452,15460158043,0.0,0.0,0.804,75
1932532,15460798043,640.0,93.8,0.905,73
1933153,15465766047,0.0,0.0,0.772,75
1933263,15466646043,879.0,68.2,0.866,73
1933375,15467542043,896.0,67.6,0.874,73
1933477,15468358043,816.0,68.2,0.86,73
1933579,15469174043,816.0,70.8,0.855,73
1933680,15469982046,808.0,73.5,0.844,73
1933779,15470774043,791.0,73.5,0.837,73
1933879,15471574046,800.0,73.5,0.845,73
1933981,15472390043,815.0,73.5,0.847,73
1934086,15473230043,840.0,73.5,0.854,73
1934191,15474070043,840.0,73.5,0.861,73
1934299,15474934043,864.0,73.5,0.874,73
1934404,15475774043,840.0,73.5,0.865,73
1934506,15476590043,816.0,73.5,0.871,73
1934606,15477390044,800.0,73.5,0.876,73
1934709,15478214044,824.0,72.8,0.875,73
1934816,15479070043,855.0,71.4,0.866,73
1934921,15479910043,840.0,71.4,0.857,73
1935026,15480750043,840.0,71.4,0.869,73
1935130,15481582043,832.0,71.4,0.885,73
1935238,15482446047,864.0,71.4,0.875,73
1935342,15483278043,831.0,72.1,0.87,73
1935453,15484166043,888.0,71.4,0.887,73
1935780,15486782044,0.0,0.0,0.78,75
1936068,15489086043,0.0,0.0,0.814,75
1936161,15489830046,744.0,80.6,0.883,73
1936257,15490598044,767.0,79.4,0.874,73
1936355,15491382043,783.0,78.1,0.869,73
1936459,15492214043,832.0,77.3,0.854,73
1936564,15493054043,840.0,76.5,0.837,73
1936856,15495390047,0.0,0.0,0.815,75
1936954,15496174046,783.0,76.5,0.871,73
1937048,15496926043,751.0,78.1,0.854,73
1937145,15497702046,776.0,77.3,0.86,73
1937243,15498486045,783.0,76.9,0.873,73
1937336,15499230043,743.0,77.3,0.861,73
1937431,15499990043,760.0,78.1,0.868,73
1937528,15500766044,776.0,77.3,0.863,73
1937628,15501566046,800.0,77.3,0.861,73
1937725,15502342043,775.0,77.3,0.853,73
1937825,15503142043,800.0,77.3,0.863,73
1937925,15503942044,800.0,77.3,0.854,73
1938021,15504710047,768.0,77.3,0.85,73
1938121,15505510044,799.0,77.3,0.85,73
1938217,15506278047,768.0,77.3,0.848,73
1938312,15507038045,759.0,77.3,0.871,73
1938407,15507798043,759.0,77.3,0.862,73
1938498,15508526044,728.0,78.1,0.86,73
1938592,15509278046,752.0,78.1,0.866,73
1938688,15510046047,768.0,78.1,0.872,73
1938787,15510838043,791.0,78.1,0.871,73
1938884,15511614043,776.0,78.1,0.851,73
1938980,15512382043,768.0,78.1,0.864,73
1939073,15513126043,744.0,78.9,0.857,73
1939166,15513870046,744.0,78.9,0.876,73
1939262,15514638047,768.0,78.1,0.879,73
1939361,15515430043,791.0,78.1,0.872,73
1939457,15516198043,768.0,78.1,0.852,73
1939555,15516982043,784.0,78.1,0.876,73
1939654,15517774047,792.0,78.1,0.857,73
1939752,15518558046,783.0,78.1,0.857,73
1939852,15519358045,799.0,76.5,0.851,73
1939954,15520174043,815.0,76.5,0.849,73
1940055,15520982043,808.0,75.8,0.843,73
1940160,15521822046,840.0,75.8,0.847,73
1940269,15522694043,871.0,75.0,0.842,73
1940381,15523590043,896.0,74.3,0.818,73
1940487,15524438043,848.0,73.5,0.794,73
1940592,15525278043,840.0,71.4,0.813,73
1940698,15526126043,848.0,71.4,0.807,73
1940799,15526934043,808.0,71.4,0.808,73
1940905,15527782043,848.0,70.8,0.821,73
1941220,15530302045,0.0,0.0,0.775,75
1941319,15531094043,791.0,75.8,0.874,73
1941417,15531878043,784.0,76.1,0.863,73
1941512,15532638045,760.0,76.5,0.857,73
1941602,15533358044,719.0,77.7,0.833,73
1941691,15534070047,712.0,78.9,0.858,73
1942549,15540934043,0.0,0.0,0.809,75
1942646,15541710045,776.0,77.3,0.862,73
1942737,15542438045,728.0,79.8,0.852,73
1942830,15543182043,743.0,80.6,0.861,73
1942922,15543918044,736.0,81.1,0.863,73
1943017,15544678046,760.0,80.6,0.86,73
1943109,15545414046,736.0,81.1,0.854,73
1943200,15546142047,728.0,81.5,0.869,73
1943296,15546910043,767.0,81.1,0.883,73
1943394,15547694047,784.0,80.6,0.865,73
1943494,15548494043,799.0,80.6,0.853,73
1943595,15549302043,808.0,78.9,0.824,73
1943692,15550078043,776.0,78.1,0.826,73
1943790,15550862043,784.0,77.3,0.845,73
1943886,15551630043,768.0,77.3,0.853,73
1943979,15552374046,744.0,77.3,0.849,73
1944072,15553118043,743.0,77.3,0.875,73
1944169,15553894043,776.0,77.3,0.874,73
1944269,15554694044,800.0,77.3,0.875,73
1944371,15555510047,816.0,77.3,0.851,73
1944471,15556310043,799.0,77.3,0.851,73
1944574,15557134046,824.0,76.5,0.847,73
1944680,15557982047,848.0,75.0,0.825,73
1944778,15558766043,783.0,75.0,0.821,73
1944876,15559550043,784.0,75.0,0.848,73
1944973,15560326043,776.0,75.0,0.845,73
1945065,15561062045,736.0,75.0,0.857,73
1945158,15561806044,743.0,76.5,0.873,73
1945453,15564166047,0.0,0.0,0.803,75
1945557,15564998043,831.0,72.1,0.867,73
1945664,15565854043,856.0,71.1,0.861,73
1945768,15566686047,832.0,72.1,0.847,73
1945868,15567486047,800.0,72.1,0.853,73
1945969,15568294043,807.0,72.1,0.863,73
1946066,15569070043,776.0,73.2,0.856,73
1946157,15569798043,728.0,74.3,0.829,73
1946244,15570494043,696.0,74.6,0.807,73
1946412,15571838043,1344.0,74.6,0.779,169
1946499,15572534043,696.0,74.6,0.81,169
1946591,15573270043,736.0,74.6,0.847,169
1946879,15575574043,0.0,0.0,0.818,75
1946978,15576366043,792.0,75.8,0.874,73
1947077,15577158047,792.0,75.8,0.852,73
1947173,15577926045,767.0,75.8,0.854,73
1947272,15578718043,791.0,75.8,0.868,73
1947560,15581022043,0.0,0.0,0.814,75
1947832,15583198043,0.0,0.0,0.8,75
1947924,15583934043,736.0,81.5,0.877,73
1948616,15589470045,0.0,0.0,0.801,75
1948720,15590302046,832.0,72.1,0.865,73
1948824,15591134043,831.0,72.1,0.854,73
1948922,15591918047,784.0,72.1,0.846,73
1949022,15592718046,799.0,73.5,0.863,73
1949122,15593518045,799.0,75.0,0.866,73
1949223,15594326043,807.0,74.6,0.853,73
1949320,15595102044,776.0,75.0,0.841,73
1949418,15595886043,783.0,75.0,0.87,73
1949517,15596678045,792.0,75.0,0.857,73
1949610,15597422046,744.0,75.8,0.848,73
1949714,15598254046,832.0,75.8,0.881,73
1950020,15600702043,0.0,0.0,0.793,75
1950118,15601486043,784.0,76.5,0.866,73
1950213,15602246043,760.0,77.7,0.856,73
1950304,15602974043,728.0,78.9,0.844,73
1950392,15603678047,704.0,80.6,0.856,73
1950485,15604422044,743.0,80.6,0.877,73
1951285,15610822045,0.0,0.0,0.801,75
1951823,15615126046,0.0,0.0,0.791,75
1951929,15615974043,847.0,70.8,0.866,73
1952034,15616814043,840.0,71.1,0.846,73
1952132,15617598047,784.0,71.4,0.849,73
1952232,15618398045,799.0,73.2,0.864,73
1952335,15619222043,823.0,72.8,0.87,73
1952439,15620054044,832.0,72.5,0.853,73
1952540,15620862046,808.0,72.8,0.846,73
1952641,15621670043,807.0,73.5,0.866,73
1952745,15622502043,832.0,72.8,0.859,73
1952847,15623318044,816.0,73.5,0.858,73
1952955,15624182046,864.0,73.5,0.877,73
1953066,15625070047,888.0,72.8,0.864,73
1953171,15625910043,839.0,72.1,0.854,73
1953279,15626774043,864.0,72.1,0.866,73
1953384,15627614046,840.0,71.4,0.86,73
1953483,15628406046,792.0,71.4,0.85,73
1953577,15629158043,751.0,71.4,0.841,73
1953670,15629902043,744.0,71.4,0.856,73
1953761,15630630047,728.0,71.4,0.82,73
1953929,15631974043,1343.0,71.4,0.801,169
1954538,15636846046,0.0,0.0,0.79,75
1955045,15640902043,0.0,0.0,0.803,75
1955148,15641726046,824.0,72.8,0.867,73
1955248,15642526043,799.0,73.9,0.861,73
1955350,15643342044,816.0,73.5,0.881,73
1956478,15652366046,0.0,0.0,0.802,75
1956877,15655558045,0.0,0.0,0.809,75
1957770,15662702043,0.0,0.0,0.809,75
1960420,15683902044,0.0,0.0,0.796,75
1960520,15684702045,800.0,75.0,0.853,73
1960620,15685502045,800.0,75.0,0.87,73
1960717,15686278047,776.0,75.0,0.855,73
1960811,15687030045,751.0,76.1,0.859,73
1960909,15687814043,783.0,76.5,0.876,73
1961210,15690222043,0.0,0.0,0.809,75
1961311,15691030043,808.0,74.3,0.864,73
1961411,15691830043,800.0,74.6,0.853,73
1961513,15692646047,816.0,74.3,0.858,73
1961815,15695062043,0.0,0.0,0.791,75
1961910,15695822043,760.0,78.9,0.844,73
1962004,15696574047,752.0,79.4,0.864,73
1962104,15697374044,799.0,78.9,0.875,73
1962408,15699806046,0.0,0.0,0.814,75
1962509,15700614043,807.0,74.3,0.859,73
1962607,15701398044,784.0,75.4,0.859,73
1962708,15702206043,807.0,74.3,0.854,73
1962806,15702990044,784.0,75.4,0.85,73
1962906,15703790047,800.0,75.0,0.861,73
1963010,15704622043,831.0,74.6,0.862,73
1963117,15705478046,856.0,74.3,0.864,73
1963221,15706310046,832.0,74.3,0.847,73
1963320,15707102043,791.0,74.3,0.86,73
1963421,15707910043,808.0,74.3,0.865,73
1963522,15708718043,808.0,74.3,0.861,73
1963619,15709494044,776.0,74.3,0.852,73
1963719,15710294043,799.0,74.3,0.868,73
1963820,15711102046,808.0,74.3,0.867,73
1963918,15711886045,783.0,74.3,0.862,73
1964019,15712694043,807.0,74.3,0.864,73
1964315,15715062047,0.0,0.0,0.797,75
1964415,15715862043,799.0,75.0,0.876,73
1964517,15716678043,816.0,74.3,0.851,73
1964614,15717454044,776.0,75.0,0.858,73
1964712,15718238045,784.0,75.8,0.863,73
1964808,15719006043,767.0,76.5,0.87,73
1964906,15719790043,784.0,76.5,0.861,73
1965002,15720558047,768.0,76.5,0.857,73
1965096,15721310043,751.0,76.9,0.862,73
1965193,15722086043,776.0,77.3,0.872,73
1965547,15724918046,0.0,0.0,0.79,75
1965624,15725534043,615.0,97.4,0.857,73
1965705,15726182047,648.0,94.9,0.899,73
1966318,15731086046,0.0,0.0,0.801,75
1966419,15731894043,807.0,74.3,0.844,73
1966517,15732678043,784.0,75.4,0.837,73
1966609,15733414043,736.0,76.5,0.86,73
1966702,15734158043,744.0,78.5,0.88,73
1966800,15734942045,784.0,76.5,0.875,73
1966900,15735742043,799.0,76.5,0.858,73
1967003,15736566043,824.0,76.5,0.853,73
1967109,15737414043,848.0,75.8,0.839,73
1967216,15738270047,856.0,75.0,0.834,73
1967320,15739102043,831.0,75.0,0.835,73
1967423,15739926045,824.0,72.8,0.842,73
1967529,15740774043,847.0,72.8,0.84,73
1967850,15743342043,0.0,0.0,0.792,75
1967957,15744198043,856.0,70.1,0.886,73
1968378,15747566043,0.0,0.0,0.8,75
1968480,15748382047,816.0,73.5,0.865,73
1968580,15749182044,799.0,74.3,0.856,73
1968675,15749942046,760.0,75.0,0.85,73
1968772,15750718043,775.0,76.1,0.869,73
1968874,15751534043,816.0,75.0,0.874,73
1969163,15753846046,0.0,0.0,0.815,75
1969262,15754638043,791.0,75.8,0.88,73
1969570,15757102043,0.0,0.0,0.784,75
1969665,15757862043,760.0,78.9,0.835,73
1969762,15758638046,776.0,78.1,0.863,73
1969854,15759374043,735.0,78.9,0.863,73
1969944,15760094043,720.0,80.2,0.863,73
1970040,15760862043,768.0,78.9,0.881,73
1970452,15764158043,0.0,0.0,0.801,75
1970767,15766678047,0.0,0.0,0.795,75
1970871,15767510043,831.0,72.1,0.851,73
1970970,15768302043,792.0,73.9,0.855,73
1971071,15769110043,808.0,74.3,0.866,73
1971173,15769926043,816.0,73.9,0.858,73
1971277,15770758045,832.0,73.5,0.85,73
1971379,15771574043,815.0,73.5,0.846,73
1971481,15772390043,816.0,73.5,0.848,73
1971579,15773174047,784.0,73.5,0.859,73
1971678,15773966043,791.0,73.5,0.875,73
1971780,15774782043,816.0,73.5,0.864,73
1971880,15775582044,800.0,73.5,0.86,73
1971981,15776390043,807.0,73.5,0.864,73
1972084,15777214045,824.0,73.5,0.866,73
1972188,15778046044,831.0,73.5,0.859,73
1972290,15778862043,815.0,73.5,0.851,73
1972394,15779694043,832.0,73.5,0.878,73
1972500,15780542043,848.0,73.5,0.867,73
1972603,15781366043,824.0,72.8,0.847,73
1972705,15782182047,816.0,72.8,0.864,73
1972807,15782998043,815.0,72.8,0.853,73
1972906,15783790043,792.0,72.8,0.862,73
1973009,15784614043,824.0,72.8,0.876,73
1973111,15785430046,816.0,73.5,0.858,73
1973208,15786206046,776.0,73.5,0.844,73
1973309,15787014043,807.0,73.5,0.874,73
1973413,15787846046,832.0,73.5,0.872,73
1973516,15788670047,824.0,73.5,0.857,73
1973618,15789486045,815.0,73.5,0.868,73
1973722,15790318046,832.0,73.5,0.873,73
1974036,15792830044,0.0,0.0,0.799,75
1974143,15793686043,855.0,70.1,0.866,73
1974251,15794550043,864.0,69.8,0.871,73
1974358,15795406044,856.0,70.1,0.871,73
1974462,15796238043,831.0,70.1,0.861,73
1974562,15797038043,800.0,70.1,0.856,73
1974663,15797846043,808.0,71.1,0.859,73
1974763,15798646043,800.0,72.1,0.84,73
1974860,15799422044,776.0,73.2,0.815,73
1974953,15800166043,743.0,74.3,0.815,73
1975328,15803166043,0.0,0.0,0.792,75
1975424,15803934043,768.0,78.1,0.867,73
1975524,15804734043,800.0,76.5,0.861,73
1975627,15805558045,824.0,75.0,0.833,73
1975722,15806318047,760.0,76.5,0.831,73
1975818,15807086045,767.0,78.1,0.869,73
1975917,15807878043,791.0,76.9,0.863,73
1976213,15810246043,0.0,0.0,0.807,75
1976313,15811046046,800.0,75.0,0.874,73
1976411,15811830043,783.0,75.8,0.846,73
1976505,15812582043,752.0,76.5,0.857,73
1976603,15813366043,784.0,76.5,0.876,73
1976696,15814110043,744.0,76.5,0.843,73
1976780,15814782043,672.0,78.1,0.846,73
1977115,15817462043,0.0,0.0,0.809,75
1977194,15818094043,632.0,94.9,0.866,73
1977825,15823142045,0.0,0.0,0.793,75
1977909,15823814044,671.0,0.0,0.841,185
1977987,15824438043,623.0,0.0,0.806,169
1978063,15825046043,608.0,0.0,0.797,169
1978173,15825926043,880.0,0.0,0.515,169
1978292,15826878043,952.0,0.0,0.794,169
1978371,15827510043,632.0,0.0,0.788,169
1978713,15830246043,0.0,0.0,0.822,75
1978808,15831006043,760.0,78.9,0.868,73
1979322,15835118046,0.0,0.0,0.813,75
1979638,15837646043,0.0,0.0,0.799,75
1979746,15838510043,864.0,69.4,0.882,73
1980189,15842054043,0.0,0.0,0.788,75
1980286,15842830043,776.0,77.3,0.86,73
1980385,15843622046,792.0,76.5,0.877,73
1981662,15853838043,0.0,0.0,0.805,75
1981768,15854686043,848.0,70.8,0.879,73
1982306,15858990047,0.0,0.0,0.798,75
1982413,15859846043,855.0,70.1,0.871,73
1982517,15860678043,832.0,71.1,0.874,73
1982622,15861518044,840.0,71.4,0.873,73
1982726,15862350043,831.0,71.8,0.865,73
1982830,15863182043,832.0,72.1,0.879,73
1983256,15866590046,0.0,0.0,0.795,75
1983359,15867414043,823.0,72.8,0.864,73
1983662,15869838043,0.0,0.0,0.814,75
1983769,15870694043,856.0,70.1,0.875,73
1983873,15871526043,832.0,71.1,0.857,73
1983977,15872358044,832.0,72.1,0.868,73
1984081,15873190043,831.0,72.1,0.869,73
1984182,15873998043,808.0,72.1,0.856,73
1984281,15874790043,792.0,72.1,0.848,73
1984384,15875614043,824.0,72.1,0.868,73
1984682,15877998047,0.0,0.0,0.787,75
1984778,15878766043,767.0,78.1,0.869,73
1984874,15879534043,768.0,78.1,0.874,73
1984972,15880318044,784.0,78.1,0.872,73
1985071,15881110047,792.0,77.3,0.854,73
1985173,15881926047,816.0,76.5,0.865,73
1985281,15882790044,863.0,76.1,0.842,73
1985386,15883630046,840.0,75.8,0.831,73
1985493,15884486045,855.0,74.6,0.834,73
1985601,15885350043,863.0,73.5,0.809,73
1985704,15886174044,824.0,72.8,0.812,73
1985807,15886998047,824.0,72.8,0.818,73
1985906,15887790045,791.0,72.8,0.822,73
1986003,15888566043,775.0,72.8,0.837,73
1986101,15889350043,784.0,72.8,0.861,73
1986201,15890150043,800.0,72.8,0.875,73
1986304,15890974043,824.0,72.8,0.867,73
1986409,15891814043,840.0,72.8,0.851,73
1986515,15892662043,848.0,72.8,0.863,73
1986613,15893446045,784.0,75.0,0.853,73
1986706,15894190044,743.0,75.8,0.866,73
1986800,15894942043,751.0,76.5,0.858,73
1986890,15895662045,720.0,76.5,0.84,73
1986973,15896326047,664.0,76.5,0.817,73
1987114,15897454047,1128.0,76.5,0.438,185
1988309,15907014043,0.0,0.0,0.789,75
1988392,15907678043,664.0,90.4,0.835,73
1988472,15908318046,640.0,92.0,0.867,73
1988551,15908950043,631.0,93.8,0.852,73
1988626,15909550047,600.0,94.3,0.833,73
1988710,15910222043,671.0,93.8,0.873,73
1989073,15913126043,0.0,0.0,0.817,75
1989172,15913918043,792.0,75.8,0.875,73
1989273,15914726045,808.0,75.0,0.859,73
1989378,15915566043,839.0,74.3,0.855,73
1989483,15916406043,840.0,72.8,0.845,73
1989589,15917254043,848.0,71.4,0.842,73
1989692,15918078043,824.0,72.1,0.861,73
1989798,15918926043,848.0,71.4,0.856,73
1989904,15919774044,848.0,71.4,0.854,73
1990006,15920590044,816.0,71.4,0.839,73
1990107,15921398043,807.0,71.4,0.867,73
1990208,15922206047,808.0,71.4,0.872,73
1990313,15923046047,840.0,71.4,0.874,73
1990414,15923854047,808.0,72.8,0.845,73
1990512,15924638047,784.0,73.5,0.859,73
1990612,15925438043,799.0,74.3,0.873,73
1990716,15926270044,832.0,74.3,0.875,73
1990821,15927110043,839.0,74.3,0.865,73
1990920,15927902043,792.0,74.3,0.855,73
1991018,15928686045,784.0,74.3,0.866,73
1991118,15929486043,799.0,75.0,0.86,73
1991226,15930350043,864.0,75.0,0.867,73
1991335,15931222043,872.0,75.0,0.854,73
1991443,15932086043,864.0,72.1,0.853,73
1991556,15932990043,904.0,71.4,0.851,73
1991665,15933862043,872.0,69.4,0.837,73
1991772,15934718046,856.0,69.4,0.836,73
1991873,15935526047,808.0,69.4,0.845,73
1991973,15936326044,799.0,69.4,0.872,73
1992074,15937134043,807.0,69.4,0.855,73
1992171,15937910046,776.0,70.1,0.843,73
1992266,15938670043,759.0,74.3,0.841,73
1992363,15939446046,776.0,74.3,0.843,73
1992656,15941790044,0.0,0.0,0.814,75
1993199,15946134043,0.0,0.0,0.802,75
1993816,15951070043,0.0,0.0,0.796,75
1994346,15955310045,0.0,0.0,0.821,75
1994449,15956134043,823.0,72.8,0.855,73
1994552,15956958043,824.0,72.8,0.867,73
1994652,15957758045,800.0,72.8,0.882,73
1994753,15958566045,808.0,73.5,0.871,73
1994849,15959334046,768.0,74.3,0.847,73
1994945,15960102047,768.0,74.6,0.861,73
1995046,15960910047,808.0,74.3,0.851,73
1995142,15961678044,767.0,74.6,0.837,73
1995243,15962486043,807.0,74.3,0.858,73
1996486,15972430043,0.0,0.0,0.801,75
1996590,15973262043,832.0,72.1,0.86,73
1996694,15974094046,832.0,72.1,0.879,73
1996798,15974926043,831.0,72.1,0.869,73
1996907,15975798043,872.0,72.1,0.871,73
1997014,15976654047,856.0,72.1,0.883,73
1997444,15980094043,0.0,0.0,0.8,75
1998454,15988174043,0.0,0.0,0.8,75
1998577,15989158047,984.0,61.0,0.876,73
1998698,15990126043,967.0,61.5,0.878,73
1998815,15991062045,936.0,62.0,0.879,73
1998919,15991894043,831.0,63.0,0.85,73
1999019,15992694043,800.0,64.1,0.829,73
1999178,15993966043,1272.0,64.1,0.458,185
1999330,15995182043,1216.0,64.1,0.785,169
1999439,15996054043,872.0,64.1,0.804,169
1999559,15997014043,960.0,64.1,0.794,169
1999675,15997942043,928.0,64.1,0.796,169
1999790,15998862043,920.0,66.0,0.802,73
2000121,16001510046,0.0,0.0,0.797,75
2000232,16002398043,887.0,67.6,0.868,73
2000342,16003278043,880.0,67.9,0.88,73
2000780,16006782043,0.0,0.0,0.796,75
2000883,16007606045,824.0,72.8,0.873,73
2002607,16021398045,0.0,0.0,0.792,75
2002708,16022206043,807.0,74.3,0.856,73
2002810,16023022043,816.0,73.9,0.867,73
2002922,16023918043,896.0,73.5,0.892,73
2005169,16041894043,0.0,0.0,0.775,75
2005256,16042590043,696.0,86.2,0.807,73
2005345,16043302043,712.0,85.2,0.888,73
2006507,16052598045,0.0,0.0,0.787,75
2006601,16053350045,752.0,79.8,0.857,73
2006694,16054094046,744.0,80.2,0.863,73
2006956,16056190043,0.0,0.0,0.806,75
2007043,16056886043,696.0,86.2,0.861,73
2007134,16057614043,728.0,84.3,0.884,73
2007228,16058366043,752.0,82.4,0.864,73
2007323,16059126043,760.0,81.1,0.853,73
2007423,16059926043,800.0,79.8,0.83,73
2007526,16060750043,824.0,79.4,0.821,73
2007633,16061606043,856.0,78.9,0.798,73
2007679,16061974043,368.0,78.9,0.452,185
2007795,16062902045,928.0,78.9,0.469,185
2007907,16063798047,896.0,78.9,0.443,185
2008002,16064558043,759.0,78.9,0.451,185
2008058,16065006044,448.0,78.9,0.831,169
2008166,16065870043,863.0,78.9,0.851,169
2008275,16066742043,872.0,79.4,0.877,73
2008385,16067622047,880.0,78.9,0.867,73
2008491,16068470043,847.0,75.0,0.844,73
2008599,16069334044,864.0,72.8,0.855,73
2011953,16096166043,0.0,0.0,0.807,75
2012273,16098726043,0.0,0.0,0.802,75
