t_us,score_t_us,latest_data_t_us,baseline_version,uses_future_data
14217190043,14217190043,14217190043,0,0
14217190043,14217190043,14237926043,0,1
14237926043,14237926043,14237926043,0,0
14217190043,14217190043,14257934044,0,1
14237926043,14237926043,14257934044,0,1
14257934044,14257934044,14257934044,0,0
14217190043,14217190043,14278350047,0,1
14237926043,14237926043,14278350047,0,1
14257934044,14257934044,14278350047,0,1
14278350047,14278350047,14278350047,0,0
14217190043,14217190043,14298822047,14237926043,1
14237926043,14237926043,14298822047,14237926043,1
14257934044,14257934044,14298822047,14237926043,1
14278350047,14278350047,14298822047,14237926043,1
14298822047,14298822047,14298822047,14237926043,0
14217190043,14217190043,14319302045,14237926043,1
14237926043,14237926043,14319302045,14237926043,1
14257934044,14257934044,14319302045,14237926043,1
14278350047,14278350047,14319302045,14237926043,1
14298822047,14298822047,14319302045,14237926043,1
14319302045,14319302045,14319302045,14237926043,0
14217190043,14217190043,14339902047,14237926043,1
14237926043,14237926043,14339902047,14237926043,1
14257934044,14257934044,14339902047,14237926043,1
14278350047,14278350047,14339902047,14237926043,1
14298822047,14298822047,14339902047,14237926043,1
14319302045,14319302045,14339902047,14237926043,1
14339902047,14339902047,14339902047,14237926043,0
14217190043,14217190043,14360278043,14237926043,1
14237926043,14237926043,14360278043,14237926043,1
14257934044,14257934044,14360278043,14237926043,1
14278350047,14278350047,14360278043,14237926043,1
14298822047,14298822047,14360278043,14237926043,1
14319302045,14319302045,14360278043,14237926043,1
14339902047,14339902047,14360278043,14237926043,1
14360278043,14360278043,14360278043,14237926043,0
14217190043,14217190043,14380870043,14237926043,1
14237926043,14237926043,14380870043,14237926043,1
14257934044,14257934044,14380870043,14237926043,1
14278350047,14278350047,14380870043,14237926043,1
14298822047,14298822047,14380870043,14237926043,1
14319302045,14319302045,14380870043,14237926043,1
14339902047,14339902047,14380870043,14237926043,1
14360278043,14360278043,14380870043,14237926043,1
14380870043,14380870043,14380870043,14237926043,0
14217190043,14217190043,14401350045,14237926043,1
14237926043,14237926043,14401350045,14237926043,1
14257934044,14257934044,14401350045,14237926043,1
14278350047,14278350047,14401350045,14237926043,1
14298822047,14298822047,14401350045,14237926043,1
14319302045,14319302045,14401350045,14237926043,1
14339902047,14339902047,14401350045,14237926043,1
14360278043,14360278043,14401350045,14237926043,1
14380870043,14380870043,14401350045,14237926043,1
14401350045,14401350045,14401350045,14237926043,0
14217190043,14217190043,14421478044,14360278043,1
14237926043,14237926043,14421478044,14360278043,1
14257934044,14257934044,14421478044,14360278043,1
14278350047,14278350047,14421478044,14360278043,1
14298822047,14298822047,14421478044,14360278043,1
14319302045,14319302045,14421478044,14360278043,1
14339902047,14339902047,14421478044,14360278043,1
14360278043,14360278043,14421478044,14360278043,1
14380870043,14380870043,14421478044,14360278043,1
14401350045,14401350045,14421478044,14360278043,1
14421478044,14421478044,14421478044,14360278043,0
14217190043,14217190043,14441846043,14360278043,1
14237926043,14237926043,14441846043,14360278043,1
14257934044,14257934044,14441846043,14360278043,1
14278350047,14278350047,14441846043,14360278043,1
14298822047,14298822047,14441846043,14360278043,1
14319302045,14319302045,14441846043,14360278043,1
14339902047,14339902047,14441846043,14360278043,1
14360278043,14360278043,14441846043,14360278043,1
14380870043,14380870043,14441846043,14360278043,1
14401350045,14401350045,14441846043,14360278043,1
14421478044,14421478044,14441846043,14360278043,1
14441846043,14441846043,14441846043,14360278043,0
14217190043,14217190043,14462022043,14360278043,1
14237926043,14237926043,14462022043,14360278043,1
14257934044,14257934044,14462022043,14360278043,1
14278350047,14278350047,14462022043,14360278043,1
14298822047,14298822047,14462022043,14360278043,1
14319302045,14319302045,14462022043,14360278043,1
14339902047,14339902047,14462022043,14360278043,1
14360278043,14360278043,14462022043,14360278043,1
14380870043,14380870043,14462022043,14360278043,1
14401350045,14401350045,14462022043,14360278043,1
14421478044,14421478044,14462022043,14360278043,1
14441846043,14441846043,14462022043,14360278043,1
14462022043,14462022043,14462022043,14360278043,0
14217190043,14217190043,14482382043,14360278043,1
14237926043,14237926043,14482382043,14360278043,1
14257934044,14257934044,14482382043,14360278043,1
14278350047,14278350047,14482382043,14360278043,1
14298822047,14298822047,14482382043,14360278043,1
14319302045,14319302045,14482382043,14360278043,1
14339902047,14339902047,14482382043,14360278043,1
14360278043,14360278043,14482382043,14360278043,1
14380870043,14380870043,14482382043,14360278043,1
14401350045,14401350045,14482382043,14360278043,1
14421478044,14421478044,14482382043,14360278043,1
14441846043,14441846043,14482382043,14360278043,1
14462022043,14462022043,14482382043,14360278043,1
14482382043,14482382043,14482382043,14360278043,0
14217190043,14217190043,14502942043,14360278043,1
14237926043,14237926043,14502942043,14360278043,1
14257934044,14257934044,14502942043,14360278043,1
14278350047,14278350047,14502942043,14360278043,1
14298822047,14298822047,14502942043,14360278043,1
14319302045,14319302045,14502942043,14360278043,1
14339902047,14339902047,14502942043,14360278043,1
14360278043,14360278043,14502942043,14360278043,1
14380870043,14380870043,14502942043,14360278043,1
14401350045,14401350045,14502942043,14360278043,1
14421478044,14421478044,14502942043,14360278043,1
14441846043,14441846043,14502942043,14360278043,1
14462022043,14462022043,14502942043,14360278043,1
14482382043,14482382043,14502942043,14360278043,1
14502942043,14502942043,14502942043,14360278043,0
14217190043,14217190043,14522990046,14360278043,1
14237926043,14237926043,14522990046,14360278043,1
14257934044,14257934044,14522990046,14360278043,1
14278350047,14278350047,14522990046,14360278043,1
14298822047,14298822047,14522990046,14360278043,1
14319302045,14319302045,14522990046,14360278043,1
14339902047,14339902047,14522990046,14360278043,1
14360278043,14360278043,14522990046,14360278043,1
14380870043,14380870043,14522990046,14360278043,1
14401350045,14401350045,14522990046,14360278043,1
14421478044,14421478044,14522990046,14360278043,1
14441846043,14441846043,14522990046,14360278043,1
14462022043,14462022043,14522990046,14360278043,1
14482382043,14482382043,14522990046,14360278043,1
14502942043,14502942043,14522990046,14360278043,1
14522990046,14522990046,14522990046,14360278043,0
14217190043,14217190043,14543038046,14482382043,1
14237926043,14237926043,14543038046,14482382043,1
14257934044,14257934044,14543038046,14482382043,1
14278350047,14278350047,14543038046,14482382043,1
14298822047,14298822047,14543038046,14482382043,1
14319302045,14319302045,14543038046,14482382043,1
14339902047,14339902047,14543038046,14482382043,1
14360278043,14360278043,14543038046,14482382043,1
14380870043,14380870043,14543038046,14482382043,1
14401350045,14401350045,14543038046,14482382043,1
14421478044,14421478044,14543038046,14482382043,1
14441846043,14441846043,14543038046,14482382043,1
14462022043,14462022043,14543038046,14482382043,1
14482382043,14482382043,14543038046,14482382043,1
14502942043,14502942043,14543038046,14482382043,1
14522990046,14522990046,14543038046,14482382043,1
14543038046,14543038046,14543038046,14482382043,0
14217190043,14217190043,14563590046,14482382043,1
14237926043,14237926043,14563590046,14482382043,1
14257934044,14257934044,14563590046,14482382043,1
14278350047,14278350047,14563590046,14482382043,1
14298822047,14298822047,14563590046,14482382043,1
14319302045,14319302045,14563590046,14482382043,1
14339902047,14339902047,14563590046,14482382043,1
14360278043,14360278043,14563590046,14482382043,1
14380870043,14380870043,14563590046,14482382043,1
14401350045,14401350045,14563590046,14482382043,1
14421478044,14421478044,14563590046,14482382043,1
14441846043,14441846043,14563590046,14482382043,1
14462022043,14462022043,14563590046,14482382043,1
14482382043,14482382043,14563590046,14482382043,1
14502942043,14502942043,14563590046,14482382043,1
14522990046,14522990046,14563590046,14482382043,1
14543038046,14543038046,14563590046,14482382043,1
14563590046,14563590046,14563590046,14482382043,0
14217190043,14217190043,14584222047,14482382043,1
14237926043,14237926043,14584222047,14482382043,1
14257934044,14257934044,14584222047,14482382043,1
14278350047,14278350047,14584222047,14482382043,1
14298822047,14298822047,14584222047,14482382043,1
14319302045,14319302045,14584222047,14482382043,1
14339902047,14339902047,14584222047,14482382043,1
14360278043,14360278043,14584222047,14482382043,1
14380870043,14380870043,14584222047,14482382043,1
14401350045,14401350045,14584222047,14482382043,1
14421478044,14421478044,14584222047,14482382043,1
14441846043,14441846043,14584222047,14482382043,1
14462022043,14462022043,14584222047,14482382043,1
14482382043,14482382043,14584222047,14482382043,1
14502942043,14502942043,14584222047,14482382043,1
14522990046,14522990046,14584222047,14482382043,1
14543038046,14543038046,14584222047,14482382043,1
14563590046,14563590046,14584222047,14482382043,1
14584222047,14584222047,14584222047,14482382043,0
14217190043,14217190043,14604590043,14482382043,1
14237926043,14237926043,14604590043,14482382043,1
14257934044,14257934044,14604590043,14482382043,1
14278350047,14278350047,14604590043,14482382043,1
14298822047,14298822047,14604590043,14482382043,1
14319302045,14319302045,14604590043,14482382043,1
14339902047,14339902047,14604590043,14482382043,1
14360278043,14360278043,14604590043,14482382043,1
14380870043,14380870043,14604590043,14482382043,1
14401350045,14401350045,14604590043,14482382043,1
14421478044,14421478044,14604590043,14482382043,1
14441846043,14441846043,14604590043,14482382043,1
14462022043,14462022043,14604590043,14482382043,1
14482382043,14482382043,14604590043,14482382043,1
14502942043,14502942043,14604590043,14482382043,1
14522990046,14522990046,14604590043,14482382043,1
14543038046,14543038046,14604590043,14482382043,1
14563590046,14563590046,14604590043,14482382043,1
14584222047,14584222047,14604590043,14482382043,1
14604590043,14604590043,14604590043,14482382043,0
14217190043,14217190043,14624686043,14482382043,1
14237926043,14237926043,14624686043,14482382043,1
14257934044,14257934044,14624686043,14482382043,1
14278350047,14278350047,14624686043,14482382043,1
14298822047,14298822047,14624686043,14482382043,1
14319302045,14319302045,14624686043,14482382043,1
14339902047,14339902047,14624686043,14482382043,1
14360278043,14360278043,14624686043,14482382043,1
14380870043,14380870043,14624686043,14482382043,1
14401350045,14401350045,14624686043,14482382043,1
14421478044,14421478044,14624686043,14482382043,1
14441846043,14441846043,14624686043,14482382043,1
14462022043,14462022043,14624686043,14482382043,1
14482382043,14482382043,14624686043,14482382043,1
14502942043,14502942043,14624686043,14482382043,1
14522990046,14522990046,14624686043,14482382043,1
14543038046,14543038046,14624686043,14482382043,1
14563590046,14563590046,14624686043,14482382043,1
14584222047,14584222047,14624686043,14482382043,1
14604590043,14604590043,14624686043,14482382043,1
14624686043,14624686043,14624686043,14482382043,0
14217190043,14217190043,14644926044,14482382043,1
14237926043,14237926043,14644926044,14482382043,1
14257934044,14257934044,14644926044,14482382043,1
14278350047,14278350047,14644926044,14482382043,1
14298822047,14298822047,14644926044,14482382043,1
14319302045,14319302045,14644926044,14482382043,1
14339902047,14339902047,14644926044,14482382043,1
14360278043,14360278043,14644926044,14482382043,1
14380870043,14380870043,14644926044,14482382043,1
14401350045,14401350045,14644926044,14482382043,1
14421478044,14421478044,14644926044,14482382043,1
14441846043,14441846043,14644926044,14482382043,1
14462022043,14462022043,14644926044,14482382043,1
14482382043,14482382043,14644926044,14482382043,1
14502942043,14502942043,14644926044,14482382043,1
14522990046,14522990046,14644926044,14482382043,1
14543038046,14543038046,14644926044,14482382043,1
14563590046,14563590046,14644926044,14482382043,1
14584222047,14584222047,14644926044,14482382043,1
14604590043,14604590043,14644926044,14482382043,1
14624686043,14624686043,14644926044,14482382043,1
14644926044,14644926044,14644926044,14482382043,0
14217190043,14217190043,14665534047,14604590043,1
14237926043,14237926043,14665534047,14604590043,1
14257934044,14257934044,14665534047,14604590043,1
14278350047,14278350047,14665534047,14604590043,1
14298822047,14298822047,14665534047,14604590043,1
14319302045,14319302045,14665534047,14604590043,1
14339902047,14339902047,14665534047,14604590043,1
14360278043,14360278043,14665534047,14604590043,1
14380870043,14380870043,14665534047,14604590043,1
14401350045,14401350045,14665534047,14604590043,1
14421478044,14421478044,14665534047,14604590043,1
14441846043,14441846043,14665534047,14604590043,1
14462022043,14462022043,14665534047,14604590043,1
14482382043,14482382043,14665534047,14604590043,1
14502942043,14502942043,14665534047,14604590043,1
14522990046,14522990046,14665534047,14604590043,1
14543038046,14543038046,14665534047,14604590043,1
14563590046,14563590046,14665534047,14604590043,1
14584222047,14584222047,14665534047,14604590043,1
14604590043,14604590043,14665534047,14604590043,1
14624686043,14624686043,14665534047,14604590043,1
14644926044,14644926044,14665534047,14604590043,1
14665534047,14665534047,14665534047,14604590043,0
14217190043,14217190043,14685662047,14604590043,1
14237926043,14237926043,14685662047,14604590043,1
14257934044,14257934044,14685662047,14604590043,1
14278350047,14278350047,14685662047,14604590043,1
14298822047,14298822047,14685662047,14604590043,1
14319302045,14319302045,14685662047,14604590043,1
14339902047,14339902047,14685662047,14604590043,1
14360278043,14360278043,14685662047,14604590043,1
14380870043,14380870043,14685662047,14604590043,1
14401350045,14401350045,14685662047,14604590043,1
14421478044,14421478044,14685662047,14604590043,1
14441846043,14441846043,14685662047,14604590043,1
14462022043,14462022043,14685662047,14604590043,1
14482382043,14482382043,14685662047,14604590043,1
14502942043,14502942043,14685662047,14604590043,1
14522990046,14522990046,14685662047,14604590043,1
14543038046,14543038046,14685662047,14604590043,1
14563590046,14563590046,14685662047,14604590043,1
14584222047,14584222047,14685662047,14604590043,1
14604590043,14604590043,14685662047,14604590043,1
14624686043,14624686043,14685662047,14604590043,1
14644926044,14644926044,14685662047,14604590043,1
14665534047,14665534047,14685662047,14604590043,1
14685662047,14685662047,14685662047,14604590043,0
14217190043,14217190043,14705742043,14604590043,1
14237926043,14237926043,14705742043,14604590043,1
14257934044,14257934044,14705742043,14604590043,1
14278350047,14278350047,14705742043,14604590043,1
14298822047,14298822047,14705742043,14604590043,1
14319302045,14319302045,14705742043,14604590043,1
14339902047,14339902047,14705742043,14604590043,1
14360278043,14360278043,14705742043,14604590043,1
14380870043,14380870043,14705742043,14604590043,1
14401350045,14401350045,14705742043,14604590043,1
14421478044,14421478044,14705742043,14604590043,1
14441846043,14441846043,14705742043,14604590043,1
14462022043,14462022043,14705742043,14604590043,1
14482382043,14482382043,14705742043,14604590043,1
14502942043,14502942043,14705742043,14604590043,1
14522990046,14522990046,14705742043,14604590043,1
14543038046,14543038046,14705742043,14604590043,1
14563590046,14563590046,14705742043,14604590043,1
14584222047,14584222047,14705742043,14604590043,1
14604590043,14604590043,14705742043,14604590043,1
14624686043,14624686043,14705742043,14604590043,1
14644926044,14644926044,14705742043,14604590043,1
14665534047,14665534047,14705742043,14604590043,1
14685662047,14685662047,14705742043,14604590043,1
14705742043,14705742043,14705742043,14604590043,0
14217190043,14217190043,14726390043,14604590043,1
14237926043,14237926043,14726390043,14604590043,1
14257934044,14257934044,14726390043,14604590043,1
14278350047,14278350047,14726390043,14604590043,1
14298822047,14298822047,14726390043,14604590043,1
14319302045,14319302045,14726390043,14604590043,1
14339902047,14339902047,14726390043,14604590043,1
14360278043,14360278043,14726390043,14604590043,1
14380870043,14380870043,14726390043,14604590043,1
14401350045,14401350045,14726390043,14604590043,1
14421478044,14421478044,14726390043,14604590043,1
14441846043,14441846043,14726390043,14604590043,1
14462022043,14462022043,14726390043,14604590043,1
14482382043,14482382043,14726390043,14604590043,1
14502942043,14502942043,14726390043,14604590043,1
14522990046,14522990046,14726390043,14604590043,1
14543038046,14543038046,14726390043,14604590043,1
14563590046,14563590046,14726390043,14604590043,1
14584222047,14584222047,14726390043,14604590043,1
14604590043,14604590043,14726390043,14604590043,1
14624686043,14624686043,14726390043,14604590043,1
14644926044,14644926044,14726390043,14604590043,1
14665534047,14665534047,14726390043,14604590043,1
14685662047,14685662047,14726390043,14604590043,1
14705742043,14705742043,14726390043,14604590043,1
14726390043,14726390043,14726390043,14604590043,0
14217190043,14217190043,14746894045,14604590043,1
14237926043,14237926043,14746894045,14604590043,1
14257934044,14257934044,14746894045,14604590043,1
14278350047,14278350047,14746894045,14604590043,1
14298822047,14298822047,14746894045,14604590043,1
14319302045,14319302045,14746894045,14604590043,1
14339902047,14339902047,14746894045,14604590043,1
14360278043,14360278043,14746894045,14604590043,1
14380870043,14380870043,14746894045,14604590043,1
14401350045,14401350045,14746894045,14604590043,1
14421478044,14421478044,14746894045,14604590043,1
14441846043,14441846043,14746894045,14604590043,1
14462022043,14462022043,14746894045,14604590043,1
14482382043,14482382043,14746894045,14604590043,1
14502942043,14502942043,14746894045,14604590043,1
14522990046,14522990046,14746894045,14604590043,1
14543038046,14543038046,14746894045,14604590043,1
14563590046,14563590046,14746894045,14604590043,1
14584222047,14584222047,14746894045,14604590043,1
14604590043,14604590043,14746894045,14604590043,1
14624686043,14624686043,14746894045,14604590043,1
14644926044,14644926044,14746894045,14604590043,1
14665534047,14665534047,14746894045,14604590043,1
14685662047,14685662047,14746894045,14604590043,1
14705742043,14705742043,14746894045,14604590043,1
14726390043,14726390043,14746894045,14604590043,1
14746894045,14746894045,14746894045,14604590043,0
14217190043,14217190043,14767126044,14604590043,1
14237926043,14237926043,14767126044,14604590043,1
14257934044,14257934044,14767126044,14604590043,1
14278350047,14278350047,14767126044,14604590043,1
14298822047,14298822047,14767126044,14604590043,1
14319302045,14319302045,14767126044,14604590043,1
14339902047,14339902047,14767126044,14604590043,1
14360278043,14360278043,14767126044,14604590043,1
14380870043,14380870043,14767126044,14604590043,1
14401350045,14401350045,14767126044,14604590043,1
14421478044,14421478044,14767126044,14604590043,1
14441846043,14441846043,14767126044,14604590043,1
14462022043,14462022043,14767126044,14604590043,1
14482382043,14482382043,14767126044,14604590043,1
14502942043,14502942043,14767126044,14604590043,1
14522990046,14522990046,14767126044,14604590043,1
14543038046,14543038046,14767126044,14604590043,1
14563590046,14563590046,14767126044,14604590043,1
14584222047,14584222047,14767126044,14604590043,1
14604590043,14604590043,14767126044,14604590043,1
14624686043,14624686043,14767126044,14604590043,1
14644926044,14644926044,14767126044,14604590043,1
14665534047,14665534047,14767126044,14604590043,1
14685662047,14685662047,14767126044,14604590043,1
14705742043,14705742043,14767126044,14604590043,1
14726390043,14726390043,14767126044,14604590043,1
14746894045,14746894045,14767126044,14604590043,1
14767126044,14767126044,14767126044,14604590043,0
14217190043,14217190043,14787246045,14726390043,1
14237926043,14237926043,14787246045,14726390043,1
14257934044,14257934044,14787246045,14726390043,1
14278350047,14278350047,14787246045,14726390043,1
14298822047,14298822047,14787246045,14726390043,1
14319302045,14319302045,14787246045,14726390043,1
14339902047,14339902047,14787246045,14726390043,1
14360278043,14360278043,14787246045,14726390043,1
14380870043,14380870043,14787246045,14726390043,1
14401350045,14401350045,14787246045,14726390043,1
14421478044,14421478044,14787246045,14726390043,1
14441846043,14441846043,14787246045,14726390043,1
14462022043,14462022043,14787246045,14726390043,1
14482382043,14482382043,14787246045,14726390043,1
14502942043,14502942043,14787246045,14726390043,1
14522990046,14522990046,14787246045,14726390043,1
14543038046,14543038046,14787246045,14726390043,1
14563590046,14563590046,14787246045,14726390043,1
14584222047,14584222047,14787246045,14726390043,1
14604590043,14604590043,14787246045,14726390043,1
14624686043,14624686043,14787246045,14726390043,1
14644926044,14644926044,14787246045,14726390043,1
14665534047,14665534047,14787246045,14726390043,1
14685662047,14685662047,14787246045,14726390043,1
14705742043,14705742043,14787246045,14726390043,1
14726390043,14726390043,14787246045,14726390043,1
14746894045,14746894045,14787246045,14726390043,1
14767126044,14767126044,14787246045,14726390043,1
14787246045,14787246045,14787246045,14726390043,0
14217190043,14217190043,14807430047,14726390043,1
14237926043,14237926043,14807430047,14726390043,1
14257934044,14257934044,14807430047,14726390043,1
14278350047,14278350047,14807430047,14726390043,1
14298822047,14298822047,14807430047,14726390043,1
14319302045,14319302045,14807430047,14726390043,1
14339902047,14339902047,14807430047,14726390043,1
14360278043,14360278043,14807430047,14726390043,1
14380870043,14380870043,14807430047,14726390043,1
14401350045,14401350045,14807430047,14726390043,1
14421478044,14421478044,14807430047,14726390043,1
14441846043,14441846043,14807430047,14726390043,1
14462022043,14462022043,14807430047,14726390043,1
14482382043,14482382043,14807430047,14726390043,1
14502942043,14502942043,14807430047,14726390043,1
14522990046,14522990046,14807430047,14726390043,1
14543038046,14543038046,14807430047,14726390043,1
14563590046,14563590046,14807430047,14726390043,1
14584222047,14584222047,14807430047,14726390043,1
14604590043,14604590043,14807430047,14726390043,1
14624686043,14624686043,14807430047,14726390043,1
14644926044,14644926044,14807430047,14726390043,1
14665534047,14665534047,14807430047,14726390043,1
14685662047,14685662047,14807430047,14726390043,1
14705742043,14705742043,14807430047,14726390043,1
14726390043,14726390043,14807430047,14726390043,1
14746894045,14746894045,14807430047,14726390043,1
14767126044,14767126044,14807430047,14726390043,1
14787246045,14787246045,14807430047,14726390043,1
14807430047,14807430047,14807430047,14726390043,0
14217190043,14217190043,14827542047,14726390043,1
14237926043,14237926043,14827542047,14726390043,1
14257934044,14257934044,14827542047,14726390043,1
14278350047,14278350047,14827542047,14726390043,1
14298822047,14298822047,14827542047,14726390043,1
14319302045,14319302045,14827542047,14726390043,1
14339902047,14339902047,14827542047,14726390043,1
14360278043,14360278043,14827542047,14726390043,1
14380870043,14380870043,14827542047,14726390043,1
14401350045,14401350045,14827542047,14726390043,1
14421478044,14421478044,14827542047,14726390043,1
14441846043,14441846043,14827542047,14726390043,1
14462022043,14462022043,14827542047,14726390043,1
14482382043,14482382043,14827542047,14726390043,1
14502942043,14502942043,14827542047,14726390043,1
14522990046,14522990046,14827542047,14726390043,1
14543038046,14543038046,14827542047,14726390043,1
14563590046,14563590046,14827542047,14726390043,1
14584222047,14584222047,14827542047,14726390043,1
14604590043,14604590043,14827542047,14726390043,1
14624686043,14624686043,14827542047,14726390043,1
14644926044,14644926044,14827542047,14726390043,1
14665534047,14665534047,14827542047,14726390043,1
14685662047,14685662047,14827542047,14726390043,1
14705742043,14705742043,14827542047,14726390043,1
14726390043,14726390043,14827542047,14726390043,1
14746894045,14746894045,14827542047,14726390043,1
14767126044,14767126044,14827542047,14726390043,1
14787246045,14787246045,14827542047,14726390043,1
14807430047,14807430047,14827542047,14726390043,1
14827542047,14827542047,14827542047,14726390043,0
14217190043,14217190043,14847590043,14726390043,1
14237926043,14237926043,14847590043,14726390043,1
14257934044,14257934044,14847590043,14726390043,1
14278350047,14278350047,14847590043,14726390043,1
14298822047,14298822047,14847590043,14726390043,1
14319302045,14319302045,14847590043,14726390043,1
14339902047,14339902047,14847590043,14726390043,1
14360278043,14360278043,14847590043,14726390043,1
14380870043,14380870043,14847590043,14726390043,1
14401350045,14401350045,14847590043,14726390043,1
14421478044,14421478044,14847590043,14726390043,1
14441846043,14441846043,14847590043,14726390043,1
14462022043,14462022043,14847590043,14726390043,1
14482382043,14482382043,14847590043,14726390043,1
14502942043,14502942043,14847590043,14726390043,1
14522990046,14522990046,14847590043,14726390043,1
14543038046,14543038046,14847590043,14726390043,1
14563590046,14563590046,14847590043,14726390043,1
14584222047,14584222047,14847590043,14726390043,1
14604590043,14604590043,14847590043,14726390043,1
14624686043,14624686043,14847590043,14726390043,1
14644926044,14644926044,14847590043,14726390043,1
14665534047,14665534047,14847590043,14726390043,1
14685662047,14685662047,14847590043,14726390043,1
14705742043,14705742043,14847590043,14726390043,1
14726390043,14726390043,14847590043,14726390043,1
14746894045,14746894045,14847590043,14726390043,1
14767126044,14767126044,14847590043,14726390043,1
14787246045,14787246045,14847590043,14726390043,1
14807430047,14807430047,14847590043,14726390043,1
14827542047,14827542047,14847590043,14726390043,1
14847590043,14847590043,14847590043,14726390043,0
14217190043,14217190043,14867990047,14726390043,1
14237926043,14237926043,14867990047,14726390043,1
14257934044,14257934044,14867990047,14726390043,1
14278350047,14278350047,14867990047,14726390043,1
14298822047,14298822047,14867990047,14726390043,1
14319302045,14319302045,14867990047,14726390043,1
14339902047,14339902047,14867990047,14726390043,1
14360278043,14360278043,14867990047,14726390043,1
14380870043,14380870043,14867990047,14726390043,1
14401350045,14401350045,14867990047,14726390043,1
14421478044,14421478044,14867990047,14726390043,1
14441846043,14441846043,14867990047,14726390043,1
14462022043,14462022043,14867990047,14726390043,1
14482382043,14482382043,14867990047,14726390043,1
14502942043,14502942043,14867990047,14726390043,1
14522990046,14522990046,14867990047,14726390043,1
14543038046,14543038046,14867990047,14726390043,1
14563590046,14563590046,14867990047,14726390043,1
14584222047,14584222047,14867990047,14726390043,1
14604590043,14604590043,14867990047,14726390043,1
14624686043,14624686043,14867990047,14726390043,1
14644926044,14644926044,14867990047,14726390043,1
14665534047,14665534047,14867990047,14726390043,1
14685662047,14685662047,14867990047,14726390043,1
14705742043,14705742043,14867990047,14726390043,1
14726390043,14726390043,14867990047,14726390043,1
14746894045,14746894045,14867990047,14726390043,1
14767126044,14767126044,14867990047,14726390043,1
14787246045,14787246045,14867990047,14726390043,1
14807430047,14807430047,14867990047,14726390043,1
14827542047,14827542047,14867990047,14726390043,1
14847590043,14847590043,14867990047,14726390043,1
14867990047,14867990047,14867990047,14726390043,0
14217190043,14217190043,14888222043,14726390043,1
14237926043,14237926043,14888222043,14726390043,1
14257934044,14257934044,14888222043,14726390043,1
14278350047,14278350047,14888222043,14726390043,1
14298822047,14298822047,14888222043,14726390043,1
14319302045,14319302045,14888222043,14726390043,1
14339902047,14339902047,14888222043,14726390043,1
14360278043,14360278043,14888222043,14726390043,1
14380870043,14380870043,14888222043,14726390043,1
14401350045,14401350045,14888222043,14726390043,1
14421478044,14421478044,14888222043,14726390043,1
14441846043,14441846043,14888222043,14726390043,1
14462022043,14462022043,14888222043,14726390043,1
14482382043,14482382043,14888222043,14726390043,1
14502942043,14502942043,14888222043,14726390043,1
14522990046,14522990046,14888222043,14726390043,1
14543038046,14543038046,14888222043,14726390043,1
14563590046,14563590046,14888222043,14726390043,1
14584222047,14584222047,14888222043,14726390043,1
14604590043,14604590043,14888222043,14726390043,1
14624686043,14624686043,14888222043,14726390043,1
14644926044,14644926044,14888222043,14726390043,1
14665534047,14665534047,14888222043,14726390043,1
14685662047,14685662047,14888222043,14726390043,1
14705742043,14705742043,14888222043,14726390043,1
14726390043,14726390043,14888222043,14726390043,1
14746894045,14746894045,14888222043,14726390043,1
14767126044,14767126044,14888222043,14726390043,1
14787246045,14787246045,14888222043,14726390043,1
14807430047,14807430047,14888222043,14726390043,1
14827542047,14827542047,14888222043,14726390043,1
14847590043,14847590043,14888222043,14726390043,1
14867990047,14867990047,14888222043,14726390043,1
14888222043,14888222043,14888222043,14726390043,0
14217190043,14217190043,14908758043,14847590043,1
14237926043,14237926043,14908758043,14847590043,1
14257934044,14257934044,14908758043,14847590043,1
14278350047,14278350047,14908758043,14847590043,1
14298822047,14298822047,14908758043,14847590043,1
14319302045,14319302045,14908758043,14847590043,1
14339902047,14339902047,14908758043,14847590043,1
14360278043,14360278043,14908758043,14847590043,1
14380870043,14380870043,14908758043,14847590043,1
14401350045,14401350045,14908758043,14847590043,1
14421478044,14421478044,14908758043,14847590043,1
14441846043,14441846043,14908758043,14847590043,1
14462022043,14462022043,14908758043,14847590043,1
14482382043,14482382043,14908758043,14847590043,1
14502942043,14502942043,14908758043,14847590043,1
14522990046,14522990046,14908758043,14847590043,1
14543038046,14543038046,14908758043,14847590043,1
14563590046,14563590046,14908758043,14847590043,1
14584222047,14584222047,14908758043,14847590043,1
14604590043,14604590043,14908758043,14847590043,1
14624686043,14624686043,14908758043,14847590043,1
14644926044,14644926044,14908758043,14847590043,1
14665534047,14665534047,14908758043,14847590043,1
14685662047,14685662047,14908758043,14847590043,1
14705742043,14705742043,14908758043,14847590043,1
14726390043,14726390043,14908758043,14847590043,1
14746894045,14746894045,14908758043,14847590043,1
14767126044,14767126044,14908758043,14847590043,1
14787246045,14787246045,14908758043,14847590043,1
14807430047,14807430047,14908758043,14847590043,1
14827542047,14827542047,14908758043,14847590043,1
14847590043,14847590043,14908758043,14847590043,1
14867990047,14867990047,14908758043,14847590043,1
14888222043,14888222043,14908758043,14847590043,1
14908758043,14908758043,14908758043,14847590043,0
14217190043,14217190043,14928958043,14847590043,1
14237926043,14237926043,14928958043,14847590043,1
14257934044,14257934044,14928958043,14847590043,1
14278350047,14278350047,14928958043,14847590043,1
14298822047,14298822047,14928958043,14847590043,1
14319302045,14319302045,14928958043,14847590043,1
14339902047,14339902047,14928958043,14847590043,1
14360278043,14360278043,14928958043,14847590043,1
14380870043,14380870043,14928958043,14847590043,1
14401350045,14401350045,14928958043,14847590043,1
14421478044,14421478044,14928958043,14847590043,1
14441846043,14441846043,14928958043,14847590043,1
14462022043,14462022043,14928958043,14847590043,1
14482382043,14482382043,14928958043,14847590043,1
14502942043,14502942043,14928958043,14847590043,1
14522990046,14522990046,14928958043,14847590043,1
14543038046,14543038046,14928958043,14847590043,1
14563590046,14563590046,14928958043,14847590043,1
14584222047,14584222047,14928958043,14847590043,1
14604590043,14604590043,14928958043,14847590043,1
14624686043,14624686043,14928958043,14847590043,1
14644926044,14644926044,14928958043,14847590043,1
14665534047,14665534047,14928958043,14847590043,1
14685662047,14685662047,14928958043,14847590043,1
14705742043,14705742043,14928958043,14847590043,1
14726390043,14726390043,14928958043,14847590043,1
14746894045,14746894045,14928958043,14847590043,1
14767126044,14767126044,14928958043,14847590043,1
14787246045,14787246045,14928958043,14847590043,1
14807430047,14807430047,14928958043,14847590043,1
14827542047,14827542047,14928958043,14847590043,1
14847590043,14847590043,14928958043,14847590043,1
14867990047,14867990047,14928958043,14847590043,1
14888222043,14888222043,14928958043,14847590043,1
14908758043,14908758043,14928958043,14847590043,1
14928958043,14928958043,14928958043,14847590043,0
14217190043,14217190043,14949438043,14847590043,1
14237926043,14237926043,14949438043,14847590043,1
14257934044,14257934044,14949438043,14847590043,1
14278350047,14278350047,14949438043,14847590043,1
14298822047,14298822047,14949438043,14847590043,1
14319302045,14319302045,14949438043,14847590043,1
14339902047,14339902047,14949438043,14847590043,1
14360278043,14360278043,14949438043,14847590043,1
14380870043,14380870043,14949438043,14847590043,1
14401350045,14401350045,14949438043,14847590043,1
14421478044,14421478044,14949438043,14847590043,1
14441846043,14441846043,14949438043,14847590043,1
14462022043,14462022043,14949438043,14847590043,1
14482382043,14482382043,14949438043,14847590043,1
14502942043,14502942043,14949438043,14847590043,1
14522990046,14522990046,14949438043,14847590043,1
14543038046,14543038046,14949438043,14847590043,1
14563590046,14563590046,14949438043,14847590043,1
14584222047,14584222047,14949438043,14847590043,1
14604590043,14604590043,14949438043,14847590043,1
14624686043,14624686043,14949438043,14847590043,1
14644926044,14644926044,14949438043,14847590043,1
14665534047,14665534047,14949438043,14847590043,1
14685662047,14685662047,14949438043,14847590043,1
14705742043,14705742043,14949438043,14847590043,1
14726390043,14726390043,14949438043,14847590043,1
14746894045,14746894045,14949438043,14847590043,1
14767126044,14767126044,14949438043,14847590043,1
14787246045,14787246045,14949438043,14847590043,1
14807430047,14807430047,14949438043,14847590043,1
14827542047,14827542047,14949438043,14847590043,1
14847590043,14847590043,14949438043,14847590043,1
14867990047,14867990047,14949438043,14847590043,1
14888222043,14888222043,14949438043,14847590043,1
14908758043,14908758043,14949438043,14847590043,1
14928958043,14928958043,14949438043,14847590043,1
14949438043,14949438043,14949438043,14847590043,0
14217190043,14217190043,14969934043,14847590043,1
14237926043,14237926043,14969934043,14847590043,1
14257934044,14257934044,14969934043,14847590043,1
14278350047,14278350047,14969934043,14847590043,1
14298822047,14298822047,14969934043,14847590043,1
14319302045,14319302045,14969934043,14847590043,1
14339902047,14339902047,14969934043,14847590043,1
14360278043,14360278043,14969934043,14847590043,1
14380870043,14380870043,14969934043,14847590043,1
14401350045,14401350045,14969934043,14847590043,1
14421478044,14421478044,14969934043,14847590043,1
14441846043,14441846043,14969934043,14847590043,1
14462022043,14462022043,14969934043,14847590043,1
14482382043,14482382043,14969934043,14847590043,1
14502942043,14502942043,14969934043,14847590043,1
14522990046,14522990046,14969934043,14847590043,1
14543038046,14543038046,14969934043,14847590043,1
14563590046,14563590046,14969934043,14847590043,1
14584222047,14584222047,14969934043,14847590043,1
14604590043,14604590043,14969934043,14847590043,1
14624686043,14624686043,14969934043,14847590043,1
14644926044,14644926044,14969934043,14847590043,1
14665534047,14665534047,14969934043,14847590043,1
14685662047,14685662047,14969934043,14847590043,1
14705742043,14705742043,14969934043,14847590043,1
14726390043,14726390043,14969934043,14847590043,1
14746894045,14746894045,14969934043,14847590043,1
14767126044,14767126044,14969934043,14847590043,1
14787246045,14787246045,14969934043,14847590043,1
14807430047,14807430047,14969934043,14847590043,1
14827542047,14827542047,14969934043,14847590043,1
14847590043,14847590043,14969934043,14847590043,1
14867990047,14867990047,14969934043,14847590043,1
14888222043,14888222043,14969934043,14847590043,1
14908758043,14908758043,14969934043,14847590043,1
14928958043,14928958043,14969934043,14847590043,1
14949438043,14949438043,14969934043,14847590043,1
14969934043,14969934043,14969934043,14847590043,0
14217190043,14217190043,14990030043,14847590043,1
14237926043,14237926043,14990030043,14847590043,1
14257934044,14257934044,14990030043,14847590043,1
14278350047,14278350047,14990030043,14847590043,1
14298822047,14298822047,14990030043,14847590043,1
14319302045,14319302045,14990030043,14847590043,1
14339902047,14339902047,14990030043,14847590043,1
14360278043,14360278043,14990030043,14847590043,1
14380870043,14380870043,14990030043,14847590043,1
14401350045,14401350045,14990030043,14847590043,1
14421478044,14421478044,14990030043,14847590043,1
14441846043,14441846043,14990030043,14847590043,1
14462022043,14462022043,14990030043,14847590043,1
14482382043,14482382043,14990030043,14847590043,1
14502942043,14502942043,14990030043,14847590043,1
14522990046,14522990046,14990030043,14847590043,1
14543038046,14543038046,14990030043,14847590043,1
14563590046,14563590046,14990030043,14847590043,1
14584222047,14584222047,14990030043,14847590043,1
14604590043,14604590043,14990030043,14847590043,1
14624686043,14624686043,14990030043,14847590043,1
14644926044,14644926044,14990030043,14847590043,1
14665534047,14665534047,14990030043,14847590043,1
14685662047,14685662047,14990030043,14847590043,1
14705742043,14705742043,14990030043,14847590043,1
14726390043,14726390043,14990030043,14847590043,1
14746894045,14746894045,14990030043,14847590043,1
14767126044,14767126044,14990030043,14847590043,1
14787246045,14787246045,14990030043,14847590043,1
14807430047,14807430047,14990030043,14847590043,1
14827542047,14827542047,14990030043,14847590043,1
14847590043,14847590043,14990030043,14847590043,1
14867990047,14867990047,14990030043,14847590043,1
14888222043,14888222043,14990030043,14847590043,1
14908758043,14908758043,14990030043,14847590043,1
14928958043,14928958043,14990030043,14847590043,1
14949438043,14949438043,14990030043,14847590043,1
14969934043,14969934043,14990030043,14847590043,1
14990030043,14990030043,14990030043,14847590043,0
14217190043,14217190043,15010878043,14847590043,1
14237926043,14237926043,15010878043,14847590043,1
14257934044,14257934044,15010878043,14847590043,1
14278350047,14278350047,15010878043,14847590043,1
14298822047,14298822047,15010878043,14847590043,1
14319302045,14319302045,15010878043,14847590043,1
14339902047,14339902047,15010878043,14847590043,1
14360278043,14360278043,15010878043,14847590043,1
14380870043,14380870043,15010878043,14847590043,1
14401350045,14401350045,15010878043,14847590043,1
14421478044,14421478044,15010878043,14847590043,1
14441846043,14441846043,15010878043,14847590043,1
14462022043,14462022043,15010878043,14847590043,1
14482382043,14482382043,15010878043,14847590043,1
14502942043,14502942043,15010878043,14847590043,1
14522990046,14522990046,15010878043,14847590043,1
14543038046,14543038046,15010878043,14847590043,1
14563590046,14563590046,15010878043,14847590043,1
14584222047,14584222047,15010878043,14847590043,1
14604590043,14604590043,15010878043,14847590043,1
14624686043,14624686043,15010878043,14847590043,1
14644926044,14644926044,15010878043,14847590043,1
14665534047,14665534047,15010878043,14847590043,1
14685662047,14685662047,15010878043,14847590043,1
14705742043,14705742043,15010878043,14847590043,1
14726390043,14726390043,15010878043,14847590043,1
14746894045,14746894045,15010878043,14847590043,1
14767126044,14767126044,15010878043,14847590043,1
14787246045,14787246045,15010878043,14847590043,1
14807430047,14807430047,15010878043,14847590043,1
14827542047,14827542047,15010878043,14847590043,1
14847590043,14847590043,15010878043,14847590043,1
14867990047,14867990047,15010878043,14847590043,1
14888222043,14888222043,15010878043,14847590043,1
14908758043,14908758043,15010878043,14847590043,1
14928958043,14928958043,15010878043,14847590043,1
14949438043,14949438043,15010878043,14847590043,1
14969934043,14969934043,15010878043,14847590043,1
14990030043,14990030043,15010878043,14847590043,1
15010878043,15010878043,15010878043,14847590043,0
14217190043,14217190043,15031350043,14969934043,1
14237926043,14237926043,15031350043,14969934043,1
14257934044,14257934044,15031350043,14969934043,1
14278350047,14278350047,15031350043,14969934043,1
14298822047,14298822047,15031350043,14969934043,1
14319302045,14319302045,15031350043,14969934043,1
14339902047,14339902047,15031350043,14969934043,1
14360278043,14360278043,15031350043,14969934043,1
14380870043,14380870043,15031350043,14969934043,1
14401350045,14401350045,15031350043,14969934043,1
14421478044,14421478044,15031350043,14969934043,1
14441846043,14441846043,15031350043,14969934043,1
14462022043,14462022043,15031350043,14969934043,1
14482382043,14482382043,15031350043,14969934043,1
14502942043,14502942043,15031350043,14969934043,1
14522990046,14522990046,15031350043,14969934043,1
14543038046,14543038046,15031350043,14969934043,1
14563590046,14563590046,15031350043,14969934043,1
14584222047,14584222047,15031350043,14969934043,1
14604590043,14604590043,15031350043,14969934043,1
14624686043,14624686043,15031350043,14969934043,1
14644926044,14644926044,15031350043,14969934043,1
14665534047,14665534047,15031350043,14969934043,1
14685662047,14685662047,15031350043,14969934043,1
14705742043,14705742043,15031350043,14969934043,1
14726390043,14726390043,15031350043,14969934043,1
14746894045,14746894045,15031350043,14969934043,1
14767126044,14767126044,15031350043,14969934043,1
14787246045,14787246045,15031350043,14969934043,1
14807430047,14807430047,15031350043,14969934043,1
14827542047,14827542047,15031350043,14969934043,1
14847590043,14847590043,15031350043,14969934043,1
14867990047,14867990047,15031350043,14969934043,1
14888222043,14888222043,15031350043,14969934043,1
14908758043,14908758043,15031350043,14969934043,1
14928958043,14928958043,15031350043,14969934043,1
14949438043,14949438043,15031350043,14969934043,1
14969934043,14969934043,15031350043,14969934043,1
14990030043,14990030043,15031350043,14969934043,1
15010878043,15010878043,15031350043,14969934043,1
15031350043,15031350043,15031350043,14969934043,0
14217190043,14217190043,15051566043,14969934043,1
14237926043,14237926043,15051566043,14969934043,1
14257934044,14257934044,15051566043,14969934043,1
14278350047,14278350047,15051566043,14969934043,1
14298822047,14298822047,15051566043,14969934043,1
14319302045,14319302045,15051566043,14969934043,1
14339902047,14339902047,15051566043,14969934043,1
14360278043,14360278043,15051566043,14969934043,1
14380870043,14380870043,15051566043,14969934043,1
14401350045,14401350045,15051566043,14969934043,1
14421478044,14421478044,15051566043,14969934043,1
14441846043,14441846043,15051566043,14969934043,1
14462022043,14462022043,15051566043,14969934043,1
14482382043,14482382043,15051566043,14969934043,1
14502942043,14502942043,15051566043,14969934043,1
14522990046,14522990046,15051566043,14969934043,1
14543038046,14543038046,15051566043,14969934043,1
14563590046,14563590046,15051566043,14969934043,1
14584222047,14584222047,15051566043,14969934043,1
14604590043,14604590043,15051566043,14969934043,1
14624686043,14624686043,15051566043,14969934043,1
14644926044,14644926044,15051566043,14969934043,1
14665534047,14665534047,15051566043,14969934043,1
14685662047,14685662047,15051566043,14969934043,1
14705742043,14705742043,15051566043,14969934043,1
14726390043,14726390043,15051566043,14969934043,1
14746894045,14746894045,15051566043,14969934043,1
14767126044,14767126044,15051566043,14969934043,1
14787246045,14787246045,15051566043,14969934043,1
14807430047,14807430047,15051566043,14969934043,1
14827542047,14827542047,15051566043,14969934043,1
14847590043,14847590043,15051566043,14969934043,1
14867990047,14867990047,15051566043,14969934043,1
14888222043,14888222043,15051566043,14969934043,1
14908758043,14908758043,15051566043,14969934043,1
14928958043,14928958043,15051566043,14969934043,1
14949438043,14949438043,15051566043,14969934043,1
14969934043,14969934043,15051566043,14969934043,1
14990030043,14990030043,15051566043,14969934043,1
15010878043,15010878043,15051566043,14969934043,1
15031350043,15031350043,15051566043,14969934043,1
15051566043,15051566043,15051566043,14969934043,0
14217190043,14217190043,15072358044,14969934043,1
14237926043,14237926043,15072358044,14969934043,1
14257934044,14257934044,15072358044,14969934043,1
14278350047,14278350047,15072358044,14969934043,1
14298822047,14298822047,15072358044,14969934043,1
14319302045,14319302045,15072358044,14969934043,1
14339902047,14339902047,15072358044,14969934043,1
14360278043,14360278043,15072358044,14969934043,1
14380870043,14380870043,15072358044,14969934043,1
14401350045,14401350045,15072358044,14969934043,1
14421478044,14421478044,15072358044,14969934043,1
14441846043,14441846043,15072358044,14969934043,1
14462022043,14462022043,15072358044,14969934043,1
14482382043,14482382043,15072358044,14969934043,1
14502942043,14502942043,15072358044,14969934043,1
14522990046,14522990046,15072358044,14969934043,1
14543038046,14543038046,15072358044,14969934043,1
14563590046,14563590046,15072358044,14969934043,1
14584222047,14584222047,15072358044,14969934043,1
14604590043,14604590043,15072358044,14969934043,1
14624686043,14624686043,15072358044,14969934043,1
14644926044,14644926044,15072358044,14969934043,1
14665534047,14665534047,15072358044,14969934043,1
14685662047,14685662047,15072358044,14969934043,1
14705742043,14705742043,15072358044,14969934043,1
14726390043,14726390043,15072358044,14969934043,1
14746894045,14746894045,15072358044,14969934043,1
14767126044,14767126044,15072358044,14969934043,1
14787246045,14787246045,15072358044,14969934043,1
14807430047,14807430047,15072358044,14969934043,1
14827542047,14827542047,15072358044,14969934043,1
14847590043,14847590043,15072358044,14969934043,1
14867990047,14867990047,15072358044,14969934043,1
14888222043,14888222043,15072358044,14969934043,1
14908758043,14908758043,15072358044,14969934043,1
14928958043,14928958043,15072358044,14969934043,1
14949438043,14949438043,15072358044,14969934043,1
14969934043,14969934043,15072358044,14969934043,1
14990030043,14990030043,15072358044,14969934043,1
15010878043,15010878043,15072358044,14969934043,1
15031350043,15031350043,15072358044,14969934043,1
15051566043,15051566043,15072358044,14969934043,1
15072358044,15072358044,15072358044,14969934043,0
14217190043,14217190043,15092798043,14969934043,1
14237926043,14237926043,15092798043,14969934043,1
14257934044,14257934044,15092798043,14969934043,1
14278350047,14278350047,15092798043,14969934043,1
14298822047,14298822047,15092798043,14969934043,1
14319302045,14319302045,15092798043,14969934043,1
14339902047,14339902047,15092798043,14969934043,1
14360278043,14360278043,15092798043,14969934043,1
14380870043,14380870043,15092798043,14969934043,1
14401350045,14401350045,15092798043,14969934043,1
14421478044,14421478044,15092798043,14969934043,1
14441846043,14441846043,15092798043,14969934043,1
14462022043,14462022043,15092798043,14969934043,1
14482382043,14482382043,15092798043,14969934043,1
14502942043,14502942043,15092798043,14969934043,1
14522990046,14522990046,15092798043,14969934043,1
14543038046,14543038046,15092798043,14969934043,1
14563590046,14563590046,15092798043,14969934043,1
14584222047,14584222047,15092798043,14969934043,1
14604590043,14604590043,15092798043,14969934043,1
14624686043,14624686043,15092798043,14969934043,1
14644926044,14644926044,15092798043,14969934043,1
14665534047,14665534047,15092798043,14969934043,1
14685662047,14685662047,15092798043,14969934043,1
14705742043,14705742043,15092798043,14969934043,1
14726390043,14726390043,15092798043,14969934043,1
14746894045,14746894045,15092798043,14969934043,1
14767126044,14767126044,15092798043,14969934043,1
14787246045,14787246045,15092798043,14969934043,1
14807430047,14807430047,15092798043,14969934043,1
14827542047,14827542047,15092798043,14969934043,1
14847590043,14847590043,15092798043,14969934043,1
14867990047,14867990047,15092798043,14969934043,1
14888222043,14888222043,15092798043,14969934043,1
14908758043,14908758043,15092798043,14969934043,1
14928958043,14928958043,15092798043,14969934043,1
14949438043,14949438043,15092798043,14969934043,1
14969934043,14969934043,15092798043,14969934043,1
14990030043,14990030043,15092798043,14969934043,1
15010878043,15010878043,15092798043,14969934043,1
15031350043,15031350043,15092798043,14969934043,1
15051566043,15051566043,15092798043,14969934043,1
15072358044,15072358044,15092798043,14969934043,1
15092798043,15092798043,15092798043,14969934043,0
14217190043,14217190043,15113174043,14969934043,1
14237926043,14237926043,15113174043,14969934043,1
14257934044,14257934044,15113174043,14969934043,1
14278350047,14278350047,15113174043,14969934043,1
14298822047,14298822047,15113174043,14969934043,1
14319302045,14319302045,15113174043,14969934043,1
14339902047,14339902047,15113174043,14969934043,1
14360278043,14360278043,15113174043,14969934043,1
14380870043,14380870043,15113174043,14969934043,1
14401350045,14401350045,15113174043,14969934043,1
14421478044,14421478044,15113174043,14969934043,1
14441846043,14441846043,15113174043,14969934043,1
14462022043,14462022043,15113174043,14969934043,1
14482382043,14482382043,15113174043,14969934043,1
14502942043,14502942043,15113174043,14969934043,1
14522990046,14522990046,15113174043,14969934043,1
14543038046,14543038046,15113174043,14969934043,1
14563590046,14563590046,15113174043,14969934043,1
14584222047,14584222047,15113174043,14969934043,1
14604590043,14604590043,15113174043,14969934043,1
14624686043,14624686043,15113174043,14969934043,1
14644926044,14644926044,15113174043,14969934043,1
14665534047,14665534047,15113174043,14969934043,1
14685662047,14685662047,15113174043,14969934043,1
14705742043,14705742043,15113174043,14969934043,1
14726390043,14726390043,15113174043,14969934043,1
14746894045,14746894045,15113174043,14969934043,1
14767126044,14767126044,15113174043,14969934043,1
14787246045,14787246045,15113174043,14969934043,1
14807430047,14807430047,15113174043,14969934043,1
14827542047,14827542047,15113174043,14969934043,1
14847590043,14847590043,15113174043,14969934043,1
14867990047,14867990047,15113174043,14969934043,1
14888222043,14888222043,15113174043,14969934043,1
14908758043,14908758043,15113174043,14969934043,1
14928958043,14928958043,15113174043,14969934043,1
14949438043,14949438043,15113174043,14969934043,1
14969934043,14969934043,15113174043,14969934043,1
14990030043,14990030043,15113174043,14969934043,1
15010878043,15010878043,15113174043,14969934043,1
15031350043,15031350043,15113174043,14969934043,1
15051566043,15051566043,15113174043,14969934043,1
15072358044,15072358044,15113174043,14969934043,1
15092798043,15092798043,15113174043,14969934043,1
15113174043,15113174043,15113174043,14969934043,0
14217190043,14217190043,15133374047,14969934043,1
14237926043,14237926043,15133374047,14969934043,1
14257934044,14257934044,15133374047,14969934043,1
14278350047,14278350047,15133374047,14969934043,1
14298822047,14298822047,15133374047,14969934043,1
14319302045,14319302045,15133374047,14969934043,1
14339902047,14339902047,15133374047,14969934043,1
14360278043,14360278043,15133374047,14969934043,1
14380870043,14380870043,15133374047,14969934043,1
14401350045,14401350045,15133374047,14969934043,1
14421478044,14421478044,15133374047,14969934043,1
14441846043,14441846043,15133374047,14969934043,1
14462022043,14462022043,15133374047,14969934043,1
14482382043,14482382043,15133374047,14969934043,1
14502942043,14502942043,15133374047,14969934043,1
14522990046,14522990046,15133374047,14969934043,1
14543038046,14543038046,15133374047,14969934043,1
14563590046,14563590046,15133374047,14969934043,1
14584222047,14584222047,15133374047,14969934043,1
14604590043,14604590043,15133374047,14969934043,1
14624686043,14624686043,15133374047,14969934043,1
14644926044,14644926044,15133374047,14969934043,1
14665534047,14665534047,15133374047,14969934043,1
14685662047,14685662047,15133374047,14969934043,1
14705742043,14705742043,15133374047,14969934043,1
14726390043,14726390043,15133374047,14969934043,1
14746894045,14746894045,15133374047,14969934043,1
14767126044,14767126044,15133374047,14969934043,1
14787246045,14787246045,15133374047,14969934043,1
14807430047,14807430047,15133374047,14969934043,1
14827542047,14827542047,15133374047,14969934043,1
14847590043,14847590043,15133374047,14969934043,1
14867990047,14867990047,15133374047,14969934043,1
14888222043,14888222043,15133374047,14969934043,1
14908758043,14908758043,15133374047,14969934043,1
14928958043,14928958043,15133374047,14969934043,1
14949438043,14949438043,15133374047,14969934043,1
14969934043,14969934043,15133374047,14969934043,1
14990030043,14990030043,15133374047,14969934043,1
15010878043,15010878043,15133374047,14969934043,1
15031350043,15031350043,15133374047,14969934043,1
15051566043,15051566043,15133374047,14969934043,1
15072358044,15072358044,15133374047,14969934043,1
15092798043,15092798043,15133374047,14969934043,1
15113174043,15113174043,15133374047,14969934043,1
15133374047,15133374047,15133374047,14969934043,0
14217190043,14217190043,15154158043,15092798043,1
14237926043,14237926043,15154158043,15092798043,1
14257934044,14257934044,15154158043,15092798043,1
14278350047,14278350047,15154158043,15092798043,1
14298822047,14298822047,15154158043,15092798043,1
14319302045,14319302045,15154158043,15092798043,1
14339902047,14339902047,15154158043,15092798043,1
14360278043,14360278043,15154158043,15092798043,1
14380870043,14380870043,15154158043,15092798043,1
14401350045,14401350045,15154158043,15092798043,1
14421478044,14421478044,15154158043,15092798043,1
14441846043,14441846043,15154158043,15092798043,1
14462022043,14462022043,15154158043,15092798043,1
14482382043,14482382043,15154158043,15092798043,1
14502942043,14502942043,15154158043,15092798043,1
14522990046,14522990046,15154158043,15092798043,1
14543038046,14543038046,15154158043,15092798043,1
14563590046,14563590046,15154158043,15092798043,1
14584222047,14584222047,15154158043,15092798043,1
14604590043,14604590043,15154158043,15092798043,1
14624686043,14624686043,15154158043,15092798043,1
14644926044,14644926044,15154158043,15092798043,1
14665534047,14665534047,15154158043,15092798043,1
14685662047,14685662047,15154158043,15092798043,1
14705742043,14705742043,15154158043,15092798043,1
14726390043,14726390043,15154158043,15092798043,1
14746894045,14746894045,15154158043,15092798043,1
14767126044,14767126044,15154158043,15092798043,1
14787246045,14787246045,15154158043,15092798043,1
14807430047,14807430047,15154158043,15092798043,1
14827542047,14827542047,15154158043,15092798043,1
14847590043,14847590043,15154158043,15092798043,1
14867990047,14867990047,15154158043,15092798043,1
14888222043,14888222043,15154158043,15092798043,1
14908758043,14908758043,15154158043,15092798043,1
14928958043,14928958043,15154158043,15092798043,1
14949438043,14949438043,15154158043,15092798043,1
14969934043,14969934043,15154158043,15092798043,1
14990030043,14990030043,15154158043,15092798043,1
15010878043,15010878043,15154158043,15092798043,1
15031350043,15031350043,15154158043,15092798043,1
15051566043,15051566043,15154158043,15092798043,1
15072358044,15072358044,15154158043,15092798043,1
15092798043,15092798043,15154158043,15092798043,1
15113174043,15113174043,15154158043,15092798043,1
15133374047,15133374047,15154158043,15092798043,1
15154158043,15154158043,15154158043,15092798043,0
14217190043,14217190043,15174966043,15092798043,1
14237926043,14237926043,15174966043,15092798043,1
14257934044,14257934044,15174966043,15092798043,1
14278350047,14278350047,15174966043,15092798043,1
14298822047,14298822047,15174966043,15092798043,1
14319302045,14319302045,15174966043,15092798043,1
14339902047,14339902047,15174966043,15092798043,1
14360278043,14360278043,15174966043,15092798043,1
14380870043,14380870043,15174966043,15092798043,1
14401350045,14401350045,15174966043,15092798043,1
14421478044,14421478044,15174966043,15092798043,1
14441846043,14441846043,15174966043,15092798043,1
14462022043,14462022043,15174966043,15092798043,1
14482382043,14482382043,15174966043,15092798043,1
14502942043,14502942043,15174966043,15092798043,1
14522990046,14522990046,15174966043,15092798043,1
14543038046,14543038046,15174966043,15092798043,1
14563590046,14563590046,15174966043,15092798043,1
14584222047,14584222047,15174966043,15092798043,1
14604590043,14604590043,15174966043,15092798043,1
14624686043,14624686043,15174966043,15092798043,1
14644926044,14644926044,15174966043,15092798043,1
14665534047,14665534047,15174966043,15092798043,1
14685662047,14685662047,15174966043,15092798043,1
14705742043,14705742043,15174966043,15092798043,1
14726390043,14726390043,15174966043,15092798043,1
14746894045,14746894045,15174966043,15092798043,1
14767126044,14767126044,15174966043,15092798043,1
14787246045,14787246045,15174966043,15092798043,1
14807430047,14807430047,15174966043,15092798043,1
14827542047,14827542047,15174966043,15092798043,1
14847590043,14847590043,15174966043,15092798043,1
14867990047,14867990047,15174966043,15092798043,1
14888222043,14888222043,15174966043,15092798043,1
14908758043,14908758043,15174966043,15092798043,1
14928958043,14928958043,15174966043,15092798043,1
14949438043,14949438043,15174966043,15092798043,1
14969934043,14969934043,15174966043,15092798043,1
14990030043,14990030043,15174966043,15092798043,1
15010878043,15010878043,15174966043,15092798043,1
15031350043,15031350043,15174966043,15092798043,1
15051566043,15051566043,15174966043,15092798043,1
15072358044,15072358044,15174966043,15092798043,1
15092798043,15092798043,15174966043,15092798043,1
15113174043,15113174043,15174966043,15092798043,1
15133374047,15133374047,15174966043,15092798043,1
15154158043,15154158043,15174966043,15092798043,1
15174966043,15174966043,15174966043,15092798043,0
14217190043,14217190043,15195414043,15092798043,1
14237926043,14237926043,15195414043,15092798043,1
14257934044,14257934044,15195414043,15092798043,1
14278350047,14278350047,15195414043,15092798043,1
14298822047,14298822047,15195414043,15092798043,1
14319302045,14319302045,15195414043,15092798043,1
14339902047,14339902047,15195414043,15092798043,1
14360278043,14360278043,15195414043,15092798043,1
14380870043,14380870043,15195414043,15092798043,1
14401350045,14401350045,15195414043,15092798043,1
14421478044,14421478044,15195414043,15092798043,1
14441846043,14441846043,15195414043,15092798043,1
14462022043,14462022043,15195414043,15092798043,1
14482382043,14482382043,15195414043,15092798043,1
14502942043,14502942043,15195414043,15092798043,1
14522990046,14522990046,15195414043,15092798043,1
14543038046,14543038046,15195414043,15092798043,1
14563590046,14563590046,15195414043,15092798043,1
14584222047,14584222047,15195414043,15092798043,1
14604590043,14604590043,15195414043,15092798043,1
14624686043,14624686043,15195414043,15092798043,1
14644926044,14644926044,15195414043,15092798043,1
14665534047,14665534047,15195414043,15092798043,1
14685662047,14685662047,15195414043,15092798043,1
14705742043,14705742043,15195414043,15092798043,1
14726390043,14726390043,15195414043,15092798043,1
14746894045,14746894045,15195414043,15092798043,1
14767126044,14767126044,15195414043,15092798043,1
14787246045,14787246045,15195414043,15092798043,1
14807430047,14807430047,15195414043,15092798043,1
14827542047,14827542047,15195414043,15092798043,1
14847590043,14847590043,15195414043,15092798043,1
14867990047,14867990047,15195414043,15092798043,1
14888222043,14888222043,15195414043,15092798043,1
14908758043,14908758043,15195414043,15092798043,1
14928958043,14928958043,15195414043,15092798043,1
14949438043,14949438043,15195414043,15092798043,1
14969934043,14969934043,15195414043,15092798043,1
14990030043,14990030043,15195414043,15092798043,1
15010878043,15010878043,15195414043,15092798043,1
15031350043,15031350043,15195414043,15092798043,1
15051566043,15051566043,15195414043,15092798043,1
15072358044,15072358044,15195414043,15092798043,1
15092798043,15092798043,15195414043,15092798043,1
15113174043,15113174043,15195414043,15092798043,1
15133374047,15133374047,15195414043,15092798043,1
15154158043,15154158043,15195414043,15092798043,1
15174966043,15174966043,15195414043,15092798043,1
15195414043,15195414043,15195414043,15092798043,0
14217190043,14217190043,15216110043,15092798043,1
14237926043,14237926043,15216110043,15092798043,1
14257934044,14257934044,15216110043,15092798043,1
14278350047,14278350047,15216110043,15092798043,1
14298822047,14298822047,15216110043,15092798043,1
14319302045,14319302045,15216110043,15092798043,1
14339902047,14339902047,15216110043,15092798043,1
14360278043,14360278043,15216110043,15092798043,1
14380870043,14380870043,15216110043,15092798043,1
14401350045,14401350045,15216110043,15092798043,1
14421478044,14421478044,15216110043,15092798043,1
14441846043,14441846043,15216110043,15092798043,1
14462022043,14462022043,15216110043,15092798043,1
14482382043,14482382043,15216110043,15092798043,1
14502942043,14502942043,15216110043,15092798043,1
14522990046,14522990046,15216110043,15092798043,1
14543038046,14543038046,15216110043,15092798043,1
14563590046,14563590046,15216110043,15092798043,1
14584222047,14584222047,15216110043,15092798043,1
14604590043,14604590043,15216110043,15092798043,1
14624686043,14624686043,15216110043,15092798043,1
14644926044,14644926044,15216110043,15092798043,1
14665534047,14665534047,15216110043,15092798043,1
14685662047,14685662047,15216110043,15092798043,1
14705742043,14705742043,15216110043,15092798043,1
14726390043,14726390043,15216110043,15092798043,1
14746894045,14746894045,15216110043,15092798043,1
14767126044,14767126044,15216110043,15092798043,1
14787246045,14787246045,15216110043,15092798043,1
14807430047,14807430047,15216110043,15092798043,1
14827542047,14827542047,15216110043,15092798043,1
14847590043,14847590043,15216110043,15092798043,1
14867990047,14867990047,15216110043,15092798043,1
14888222043,14888222043,15216110043,15092798043,1
14908758043,14908758043,15216110043,15092798043,1
14928958043,14928958043,15216110043,15092798043,1
14949438043,14949438043,15216110043,15092798043,1
14969934043,14969934043,15216110043,15092798043,1
14990030043,14990030043,15216110043,15092798043,1
15010878043,15010878043,15216110043,15092798043,1
15031350043,15031350043,15216110043,15092798043,1
15051566043,15051566043,15216110043,15092798043,1
15072358044,15072358044,15216110043,15092798043,1
15092798043,15092798043,15216110043,15092798043,1
15113174043,15113174043,15216110043,15092798043,1
15133374047,15133374047,15216110043,15092798043,1
15154158043,15154158043,15216110043,15092798043,1
15174966043,15174966043,15216110043,15092798043,1
15195414043,15195414043,15216110043,15092798043,1
15216110043,15216110043,15216110043,15092798043,0
14217190043,14217190043,15236726043,15092798043,1
14237926043,14237926043,15236726043,15092798043,1
14257934044,14257934044,15236726043,15092798043,1
14278350047,14278350047,15236726043,15092798043,1
14298822047,14298822047,15236726043,15092798043,1
14319302045,14319302045,15236726043,15092798043,1
14339902047,14339902047,15236726043,15092798043,1
14360278043,14360278043,15236726043,15092798043,1
14380870043,14380870043,15236726043,15092798043,1
14401350045,14401350045,15236726043,15092798043,1
14421478044,14421478044,15236726043,15092798043,1
14441846043,14441846043,15236726043,15092798043,1
14462022043,14462022043,15236726043,15092798043,1
14482382043,14482382043,15236726043,15092798043,1
14502942043,14502942043,15236726043,15092798043,1
14522990046,14522990046,15236726043,15092798043,1
14543038046,14543038046,15236726043,15092798043,1
14563590046,14563590046,15236726043,15092798043,1
14584222047,14584222047,15236726043,15092798043,1
14604590043,14604590043,15236726043,15092798043,1
14624686043,14624686043,15236726043,15092798043,1
14644926044,14644926044,15236726043,15092798043,1
14665534047,14665534047,15236726043,15092798043,1
14685662047,14685662047,15236726043,15092798043,1
14705742043,14705742043,15236726043,15092798043,1
14726390043,14726390043,15236726043,15092798043,1
14746894045,14746894045,15236726043,15092798043,1
14767126044,14767126044,15236726043,15092798043,1
14787246045,14787246045,15236726043,15092798043,1
14807430047,14807430047,15236726043,15092798043,1
14827542047,14827542047,15236726043,15092798043,1
14847590043,14847590043,15236726043,15092798043,1
14867990047,14867990047,15236726043,15092798043,1
14888222043,14888222043,15236726043,15092798043,1
14908758043,14908758043,15236726043,15092798043,1
14928958043,14928958043,15236726043,15092798043,1
14949438043,14949438043,15236726043,15092798043,1
14969934043,14969934043,15236726043,15092798043,1
14990030043,14990030043,15236726043,15092798043,1
15010878043,15010878043,15236726043,15092798043,1
15031350043,15031350043,15236726043,15092798043,1
15051566043,15051566043,15236726043,15092798043,1
15072358044,15072358044,15236726043,15092798043,1
15092798043,15092798043,15236726043,15092798043,1
15113174043,15113174043,15236726043,15092798043,1
15133374047,15133374047,15236726043,15092798043,1
15154158043,15154158043,15236726043,15092798043,1
15174966043,15174966043,15236726043,15092798043,1
15195414043,15195414043,15236726043,15092798043,1
15216110043,15216110043,15236726043,15092798043,1
15236726043,15236726043,15236726043,15092798043,0
14217190043,14217190043,15256902043,15092798043,1
14237926043,14237926043,15256902043,15092798043,1
14257934044,14257934044,15256902043,15092798043,1
14278350047,14278350047,15256902043,15092798043,1
14298822047,14298822047,15256902043,15092798043,1
14319302045,14319302045,15256902043,15092798043,1
14339902047,14339902047,15256902043,15092798043,1
14360278043,14360278043,15256902043,15092798043,1
14380870043,14380870043,15256902043,15092798043,1
14401350045,14401350045,15256902043,15092798043,1
14421478044,14421478044,15256902043,15092798043,1
14441846043,14441846043,15256902043,15092798043,1
14462022043,14462022043,15256902043,15092798043,1
14482382043,14482382043,15256902043,15092798043,1
14502942043,14502942043,15256902043,15092798043,1
14522990046,14522990046,15256902043,15092798043,1
14543038046,14543038046,15256902043,15092798043,1
14563590046,14563590046,15256902043,15092798043,1
14584222047,14584222047,15256902043,15092798043,1
14604590043,14604590043,15256902043,15092798043,1
14624686043,14624686043,15256902043,15092798043,1
14644926044,14644926044,15256902043,15092798043,1
14665534047,14665534047,15256902043,15092798043,1
14685662047,14685662047,15256902043,15092798043,1
14705742043,14705742043,15256902043,15092798043,1
14726390043,14726390043,15256902043,15092798043,1
14746894045,14746894045,15256902043,15092798043,1
14767126044,14767126044,15256902043,15092798043,1
14787246045,14787246045,15256902043,15092798043,1
14807430047,14807430047,15256902043,15092798043,1
14827542047,14827542047,15256902043,15092798043,1
14847590043,14847590043,15256902043,15092798043,1
14867990047,14867990047,15256902043,15092798043,1
14888222043,14888222043,15256902043,15092798043,1
14908758043,14908758043,15256902043,15092798043,1
14928958043,14928958043,15256902043,15092798043,1
14949438043,14949438043,15256902043,15092798043,1
14969934043,14969934043,15256902043,15092798043,1
14990030043,14990030043,15256902043,15092798043,1
15010878043,15010878043,15256902043,15092798043,1
15031350043,15031350043,15256902043,15092798043,1
15051566043,15051566043,15256902043,15092798043,1
15072358044,15072358044,15256902043,15092798043,1
15092798043,15092798043,15256902043,15092798043,1
15113174043,15113174043,15256902043,15092798043,1
15133374047,15133374047,15256902043,15092798043,1
15154158043,15154158043,15256902043,15092798043,1
15174966043,15174966043,15256902043,15092798043,1
15195414043,15195414043,15256902043,15092798043,1
15216110043,15216110043,15256902043,15092798043,1
15236726043,15236726043,15256902043,15092798043,1
15256902043,15256902043,15256902043,15092798043,0
14217190043,14217190043,15276958043,15216110043,1
14237926043,14237926043,15276958043,15216110043,1
14257934044,14257934044,15276958043,15216110043,1
14278350047,14278350047,15276958043,15216110043,1
14298822047,14298822047,15276958043,15216110043,1
14319302045,14319302045,15276958043,15216110043,1
14339902047,14339902047,15276958043,15216110043,1
14360278043,14360278043,15276958043,15216110043,1
14380870043,14380870043,15276958043,15216110043,1
14401350045,14401350045,15276958043,15216110043,1
14421478044,14421478044,15276958043,15216110043,1
14441846043,14441846043,15276958043,15216110043,1
14462022043,14462022043,15276958043,15216110043,1
14482382043,14482382043,15276958043,15216110043,1
14502942043,14502942043,15276958043,15216110043,1
14522990046,14522990046,15276958043,15216110043,1
14543038046,14543038046,15276958043,15216110043,1
14563590046,14563590046,15276958043,15216110043,1
14584222047,14584222047,15276958043,15216110043,1
14604590043,14604590043,15276958043,15216110043,1
14624686043,14624686043,15276958043,15216110043,1
14644926044,14644926044,15276958043,15216110043,1
14665534047,14665534047,15276958043,15216110043,1
14685662047,14685662047,15276958043,15216110043,1
14705742043,14705742043,15276958043,15216110043,1
14726390043,14726390043,15276958043,15216110043,1
14746894045,14746894045,15276958043,15216110043,1
14767126044,14767126044,15276958043,15216110043,1
14787246045,14787246045,15276958043,15216110043,1
14807430047,14807430047,15276958043,15216110043,1
14827542047,14827542047,15276958043,15216110043,1
14847590043,14847590043,15276958043,15216110043,1
14867990047,14867990047,15276958043,15216110043,1
14888222043,14888222043,15276958043,15216110043,1
14908758043,14908758043,15276958043,15216110043,1
14928958043,14928958043,15276958043,15216110043,1
14949438043,14949438043,15276958043,15216110043,1
14969934043,14969934043,15276958043,15216110043,1
14990030043,14990030043,15276958043,15216110043,1
15010878043,15010878043,15276958043,15216110043,1
15031350043,15031350043,15276958043,15216110043,1
15051566043,15051566043,15276958043,15216110043,1
15072358044,15072358044,15276958043,15216110043,1
15092798043,15092798043,15276958043,15216110043,1
15113174043,15113174043,15276958043,15216110043,1
15133374047,15133374047,15276958043,15216110043,1
15154158043,15154158043,15276958043,15216110043,1
15174966043,15174966043,15276958043,15216110043,1
15195414043,15195414043,15276958043,15216110043,1
15216110043,15216110043,15276958043,15216110043,1
15236726043,15236726043,15276958043,15216110043,1
15256902043,15256902043,15276958043,15216110043,1
15276958043,15276958043,15276958043,15216110043,0
14217190043,14217190043,15297206043,15216110043,1
14237926043,14237926043,15297206043,15216110043,1
14257934044,14257934044,15297206043,15216110043,1
14278350047,14278350047,15297206043,15216110043,1
14298822047,14298822047,15297206043,15216110043,1
14319302045,14319302045,15297206043,15216110043,1
14339902047,14339902047,15297206043,15216110043,1
14360278043,14360278043,15297206043,15216110043,1
14380870043,14380870043,15297206043,15216110043,1
14401350045,14401350045,15297206043,15216110043,1
14421478044,14421478044,15297206043,15216110043,1
14441846043,14441846043,15297206043,15216110043,1
14462022043,14462022043,15297206043,15216110043,1
14482382043,14482382043,15297206043,15216110043,1
14502942043,14502942043,15297206043,15216110043,1
14522990046,14522990046,15297206043,15216110043,1
14543038046,14543038046,15297206043,15216110043,1
14563590046,14563590046,15297206043,15216110043,1
14584222047,14584222047,15297206043,15216110043,1
14604590043,14604590043,15297206043,15216110043,1
14624686043,14624686043,15297206043,15216110043,1
14644926044,14644926044,15297206043,15216110043,1
14665534047,14665534047,15297206043,15216110043,1
14685662047,14685662047,15297206043,15216110043,1
14705742043,14705742043,15297206043,15216110043,1
14726390043,14726390043,15297206043,15216110043,1
14746894045,14746894045,15297206043,15216110043,1
14767126044,14767126044,15297206043,15216110043,1
14787246045,14787246045,15297206043,15216110043,1
14807430047,14807430047,15297206043,15216110043,1
14827542047,14827542047,15297206043,15216110043,1
14847590043,14847590043,15297206043,15216110043,1
14867990047,14867990047,15297206043,15216110043,1
14888222043,14888222043,15297206043,15216110043,1
14908758043,14908758043,15297206043,15216110043,1
14928958043,14928958043,15297206043,15216110043,1
14949438043,14949438043,15297206043,15216110043,1
14969934043,14969934043,15297206043,15216110043,1
14990030043,14990030043,15297206043,15216110043,1
15010878043,15010878043,15297206043,15216110043,1
15031350043,15031350043,15297206043,15216110043,1
15051566043,15051566043,15297206043,15216110043,1
15072358044,15072358044,15297206043,15216110043,1
15092798043,15092798043,15297206043,15216110043,1
15113174043,15113174043,15297206043,15216110043,1
15133374047,15133374047,15297206043,15216110043,1
15154158043,15154158043,15297206043,15216110043,1
15174966043,15174966043,15297206043,15216110043,1
15195414043,15195414043,15297206043,15216110043,1
15216110043,15216110043,15297206043,15216110043,1
15236726043,15236726043,15297206043,15216110043,1
15256902043,15256902043,15297206043,15216110043,1
15276958043,15276958043,15297206043,15216110043,1
15297206043,15297206043,15297206043,15216110043,0
14217190043,14217190043,15317926043,15216110043,1
14237926043,14237926043,15317926043,15216110043,1
14257934044,14257934044,15317926043,15216110043,1
14278350047,14278350047,15317926043,15216110043,1
14298822047,14298822047,15317926043,15216110043,1
14319302045,14319302045,15317926043,15216110043,1
14339902047,14339902047,15317926043,15216110043,1
14360278043,14360278043,15317926043,15216110043,1
14380870043,14380870043,15317926043,15216110043,1
14401350045,14401350045,15317926043,15216110043,1
14421478044,14421478044,15317926043,15216110043,1
14441846043,14441846043,15317926043,15216110043,1
14462022043,14462022043,15317926043,15216110043,1
14482382043,14482382043,15317926043,15216110043,1
14502942043,14502942043,15317926043,15216110043,1
14522990046,14522990046,15317926043,15216110043,1
14543038046,14543038046,15317926043,15216110043,1
14563590046,14563590046,15317926043,15216110043,1
14584222047,14584222047,15317926043,15216110043,1
14604590043,14604590043,15317926043,15216110043,1
14624686043,14624686043,15317926043,15216110043,1
14644926044,14644926044,15317926043,15216110043,1
14665534047,14665534047,15317926043,15216110043,1
14685662047,14685662047,15317926043,15216110043,1
14705742043,14705742043,15317926043,15216110043,1
14726390043,14726390043,15317926043,15216110043,1
14746894045,14746894045,15317926043,15216110043,1
14767126044,14767126044,15317926043,15216110043,1
14787246045,14787246045,15317926043,15216110043,1
14807430047,14807430047,15317926043,15216110043,1
14827542047,14827542047,15317926043,15216110043,1
14847590043,14847590043,15317926043,15216110043,1
14867990047,14867990047,15317926043,15216110043,1
14888222043,14888222043,15317926043,15216110043,1
14908758043,14908758043,15317926043,15216110043,1
14928958043,14928958043,15317926043,15216110043,1
14949438043,14949438043,15317926043,15216110043,1
14969934043,14969934043,15317926043,15216110043,1
14990030043,14990030043,15317926043,15216110043,1
15010878043,15010878043,15317926043,15216110043,1
15031350043,15031350043,15317926043,15216110043,1
15051566043,15051566043,15317926043,15216110043,1
15072358044,15072358044,15317926043,15216110043,1
15092798043,15092798043,15317926043,15216110043,1
15113174043,15113174043,15317926043,15216110043,1
15133374047,15133374047,15317926043,15216110043,1
15154158043,15154158043,15317926043,15216110043,1
15174966043,15174966043,15317926043,15216110043,1
15195414043,15195414043,15317926043,15216110043,1
15216110043,15216110043,15317926043,15216110043,1
15236726043,15236726043,15317926043,15216110043,1
15256902043,15256902043,15317926043,15216110043,1
15276958043,15276958043,15317926043,15216110043,1
15297206043,15297206043,15317926043,15216110043,1
15317926043,15317926043,15317926043,15216110043,0
14217190043,14217190043,15338038043,15216110043,1
14237926043,14237926043,15338038043,15216110043,1
14257934044,14257934044,15338038043,15216110043,1
14278350047,14278350047,15338038043,15216110043,1
14298822047,14298822047,15338038043,15216110043,1
14319302045,14319302045,15338038043,15216110043,1
14339902047,14339902047,15338038043,15216110043,1
14360278043,14360278043,15338038043,15216110043,1
14380870043,14380870043,15338038043,15216110043,1
14401350045,14401350045,15338038043,15216110043,1
14421478044,14421478044,15338038043,15216110043,1
14441846043,14441846043,15338038043,15216110043,1
14462022043,14462022043,15338038043,15216110043,1
14482382043,14482382043,15338038043,15216110043,1
14502942043,14502942043,15338038043,15216110043,1
14522990046,14522990046,15338038043,15216110043,1
14543038046,14543038046,15338038043,15216110043,1
14563590046,14563590046,15338038043,15216110043,1
14584222047,14584222047,15338038043,15216110043,1
14604590043,14604590043,15338038043,15216110043,1
14624686043,14624686043,15338038043,15216110043,1
14644926044,14644926044,15338038043,15216110043,1
14665534047,14665534047,15338038043,15216110043,1
14685662047,14685662047,15338038043,15216110043,1
14705742043,14705742043,15338038043,15216110043,1
14726390043,14726390043,15338038043,15216110043,1
14746894045,14746894045,15338038043,15216110043,1
14767126044,14767126044,15338038043,15216110043,1
14787246045,14787246045,15338038043,15216110043,1
14807430047,14807430047,15338038043,15216110043,1
14827542047,14827542047,15338038043,15216110043,1
14847590043,14847590043,15338038043,15216110043,1
14867990047,14867990047,15338038043,15216110043,1
14888222043,14888222043,15338038043,15216110043,1
14908758043,14908758043,15338038043,15216110043,1
14928958043,14928958043,15338038043,15216110043,1
14949438043,14949438043,15338038043,15216110043,1
14969934043,14969934043,15338038043,15216110043,1
14990030043,14990030043,15338038043,15216110043,1
15010878043,15010878043,15338038043,15216110043,1
15031350043,15031350043,15338038043,15216110043,1
15051566043,15051566043,15338038043,15216110043,1
15072358044,15072358044,15338038043,15216110043,1
15092798043,15092798043,15338038043,15216110043,1
15113174043,15113174043,15338038043,15216110043,1
15133374047,15133374047,15338038043,15216110043,1
15154158043,15154158043,15338038043,15216110043,1
15174966043,15174966043,15338038043,15216110043,1
15195414043,15195414043,15338038043,15216110043,1
15216110043,15216110043,15338038043,15216110043,1
15236726043,15236726043,15338038043,15216110043,1
15256902043,15256902043,15338038043,15216110043,1
15276958043,15276958043,15338038043,15216110043,1
15297206043,15297206043,15338038043,15216110043,1
15317926043,15317926043,15338038043,15216110043,1
15338038043,15338038043,15338038043,15216110043,0
14217190043,14217190043,15358646043,15216110043,1
14237926043,14237926043,15358646043,15216110043,1
14257934044,14257934044,15358646043,15216110043,1
14278350047,14278350047,15358646043,15216110043,1
14298822047,14298822047,15358646043,15216110043,1
14319302045,14319302045,15358646043,15216110043,1
14339902047,14339902047,15358646043,15216110043,1
14360278043,14360278043,15358646043,15216110043,1
14380870043,14380870043,15358646043,15216110043,1
14401350045,14401350045,15358646043,15216110043,1
14421478044,14421478044,15358646043,15216110043,1
14441846043,14441846043,15358646043,15216110043,1
14462022043,14462022043,15358646043,15216110043,1
14482382043,14482382043,15358646043,15216110043,1
14502942043,14502942043,15358646043,15216110043,1
14522990046,14522990046,15358646043,15216110043,1
14543038046,14543038046,15358646043,15216110043,1
14563590046,14563590046,15358646043,15216110043,1
14584222047,14584222047,15358646043,15216110043,1
14604590043,14604590043,15358646043,15216110043,1
14624686043,14624686043,15358646043,15216110043,1
14644926044,14644926044,15358646043,15216110043,1
14665534047,14665534047,15358646043,15216110043,1
14685662047,14685662047,15358646043,15216110043,1
14705742043,14705742043,15358646043,15216110043,1
14726390043,14726390043,15358646043,15216110043,1
14746894045,14746894045,15358646043,15216110043,1
14767126044,14767126044,15358646043,15216110043,1
14787246045,14787246045,15358646043,15216110043,1
14807430047,14807430047,15358646043,15216110043,1
14827542047,14827542047,15358646043,15216110043,1
14847590043,14847590043,15358646043,15216110043,1
14867990047,14867990047,15358646043,15216110043,1
14888222043,14888222043,15358646043,15216110043,1
14908758043,14908758043,15358646043,15216110043,1
14928958043,14928958043,15358646043,15216110043,1
14949438043,14949438043,15358646043,15216110043,1
14969934043,14969934043,15358646043,15216110043,1
14990030043,14990030043,15358646043,15216110043,1
15010878043,15010878043,15358646043,15216110043,1
15031350043,15031350043,15358646043,15216110043,1
15051566043,15051566043,15358646043,15216110043,1
15072358044,15072358044,15358646043,15216110043,1
15092798043,15092798043,15358646043,15216110043,1
15113174043,15113174043,15358646043,15216110043,1
15133374047,15133374047,15358646043,15216110043,1
15154158043,15154158043,15358646043,15216110043,1
15174966043,15174966043,15358646043,15216110043,1
15195414043,15195414043,15358646043,15216110043,1
15216110043,15216110043,15358646043,15216110043,1
15236726043,15236726043,15358646043,15216110043,1
15256902043,15256902043,15358646043,15216110043,1
15276958043,15276958043,15358646043,15216110043,1
15297206043,15297206043,15358646043,15216110043,1
15317926043,15317926043,15358646043,15216110043,1
15338038043,15338038043,15358646043,15216110043,1
15358646043,15358646043,15358646043,15216110043,0
14217190043,14217190043,15379342043,15216110043,1
14237926043,14237926043,15379342043,15216110043,1
14257934044,14257934044,15379342043,15216110043,1
14278350047,14278350047,15379342043,15216110043,1
14298822047,14298822047,15379342043,15216110043,1
14319302045,14319302045,15379342043,15216110043,1
14339902047,14339902047,15379342043,15216110043,1
14360278043,14360278043,15379342043,15216110043,1
14380870043,14380870043,15379342043,15216110043,1
14401350045,14401350045,15379342043,15216110043,1
14421478044,14421478044,15379342043,15216110043,1
14441846043,14441846043,15379342043,15216110043,1
14462022043,14462022043,15379342043,15216110043,1
14482382043,14482382043,15379342043,15216110043,1
14502942043,14502942043,15379342043,15216110043,1
14522990046,14522990046,15379342043,15216110043,1
14543038046,14543038046,15379342043,15216110043,1
14563590046,14563590046,15379342043,15216110043,1
14584222047,14584222047,15379342043,15216110043,1
14604590043,14604590043,15379342043,15216110043,1
14624686043,14624686043,15379342043,15216110043,1
14644926044,14644926044,15379342043,15216110043,1
14665534047,14665534047,15379342043,15216110043,1
14685662047,14685662047,15379342043,15216110043,1
14705742043,14705742043,15379342043,15216110043,1
14726390043,14726390043,15379342043,15216110043,1
14746894045,14746894045,15379342043,15216110043,1
14767126044,14767126044,15379342043,15216110043,1
14787246045,14787246045,15379342043,15216110043,1
14807430047,14807430047,15379342043,15216110043,1
14827542047,14827542047,15379342043,15216110043,1
14847590043,14847590043,15379342043,15216110043,1
14867990047,14867990047,15379342043,15216110043,1
14888222043,14888222043,15379342043,15216110043,1
14908758043,14908758043,15379342043,15216110043,1
14928958043,14928958043,15379342043,15216110043,1
14949438043,14949438043,15379342043,15216110043,1
14969934043,14969934043,15379342043,15216110043,1
14990030043,14990030043,15379342043,15216110043,1
15010878043,15010878043,15379342043,15216110043,1
15031350043,15031350043,15379342043,15216110043,1
15051566043,15051566043,15379342043,15216110043,1
15072358044,15072358044,15379342043,15216110043,1
15092798043,15092798043,15379342043,15216110043,1
15113174043,15113174043,15379342043,15216110043,1
15133374047,15133374047,15379342043,15216110043,1
15154158043,15154158043,15379342043,15216110043,1
15174966043,15174966043,15379342043,15216110043,1
15195414043,15195414043,15379342043,15216110043,1
15216110043,15216110043,15379342043,15216110043,1
15236726043,15236726043,15379342043,15216110043,1
15256902043,15256902043,15379342043,15216110043,1
15276958043,15276958043,15379342043,15216110043,1
15297206043,15297206043,15379342043,15216110043,1
15317926043,15317926043,15379342043,15216110043,1
15338038043,15338038043,15379342043,15216110043,1
15358646043,15358646043,15379342043,15216110043,1
15379342043,15379342043,15379342043,15216110043,0
14217190043,14217190043,15399486043,15338038043,1
14237926043,14237926043,15399486043,15338038043,1
14257934044,14257934044,15399486043,15338038043,1
14278350047,14278350047,15399486043,15338038043,1
14298822047,14298822047,15399486043,15338038043,1
14319302045,14319302045,15399486043,15338038043,1
14339902047,14339902047,15399486043,15338038043,1
14360278043,14360278043,15399486043,15338038043,1
14380870043,14380870043,15399486043,15338038043,1
14401350045,14401350045,15399486043,15338038043,1
14421478044,14421478044,15399486043,15338038043,1
14441846043,14441846043,15399486043,15338038043,1
14462022043,14462022043,15399486043,15338038043,1
14482382043,14482382043,15399486043,15338038043,1
14502942043,14502942043,15399486043,15338038043,1
14522990046,14522990046,15399486043,15338038043,1
14543038046,14543038046,15399486043,15338038043,1
14563590046,14563590046,15399486043,15338038043,1
14584222047,14584222047,15399486043,15338038043,1
14604590043,14604590043,15399486043,15338038043,1
14624686043,14624686043,15399486043,15338038043,1
14644926044,14644926044,15399486043,15338038043,1
14665534047,14665534047,15399486043,15338038043,1
14685662047,14685662047,15399486043,15338038043,1
14705742043,14705742043,15399486043,15338038043,1
14726390043,14726390043,15399486043,15338038043,1
14746894045,14746894045,15399486043,15338038043,1
14767126044,14767126044,15399486043,15338038043,1
14787246045,14787246045,15399486043,15338038043,1
14807430047,14807430047,15399486043,15338038043,1
14827542047,14827542047,15399486043,15338038043,1
14847590043,14847590043,15399486043,15338038043,1
14867990047,14867990047,15399486043,15338038043,1
14888222043,14888222043,15399486043,15338038043,1
14908758043,14908758043,15399486043,15338038043,1
14928958043,14928958043,15399486043,15338038043,1
14949438043,14949438043,15399486043,15338038043,1
14969934043,14969934043,15399486043,15338038043,1
14990030043,14990030043,15399486043,15338038043,1
15010878043,15010878043,15399486043,15338038043,1
15031350043,15031350043,15399486043,15338038043,1
15051566043,15051566043,15399486043,15338038043,1
15072358044,15072358044,15399486043,15338038043,1
15092798043,15092798043,15399486043,15338038043,1
15113174043,15113174043,15399486043,15338038043,1
15133374047,15133374047,15399486043,15338038043,1
15154158043,15154158043,15399486043,15338038043,1
15174966043,15174966043,15399486043,15338038043,1
15195414043,15195414043,15399486043,15338038043,1
15216110043,15216110043,15399486043,15338038043,1
15236726043,15236726043,15399486043,15338038043,1
15256902043,15256902043,15399486043,15338038043,1
15276958043,15276958043,15399486043,15338038043,1
15297206043,15297206043,15399486043,15338038043,1
15317926043,15317926043,15399486043,15338038043,1
15338038043,15338038043,15399486043,15338038043,1
15358646043,15358646043,15399486043,15338038043,1
15379342043,15379342043,15399486043,15338038043,1
15399486043,15399486043,15399486043,15338038043,0
14217190043,14217190043,15420174043,15338038043,1
14237926043,14237926043,15420174043,15338038043,1
14257934044,14257934044,15420174043,15338038043,1
14278350047,14278350047,15420174043,15338038043,1
14298822047,14298822047,15420174043,15338038043,1
14319302045,14319302045,15420174043,15338038043,1
14339902047,14339902047,15420174043,15338038043,1
14360278043,14360278043,15420174043,15338038043,1
14380870043,14380870043,15420174043,15338038043,1
14401350045,14401350045,15420174043,15338038043,1
14421478044,14421478044,15420174043,15338038043,1
14441846043,14441846043,15420174043,15338038043,1
14462022043,14462022043,15420174043,15338038043,1
14482382043,14482382043,15420174043,15338038043,1
14502942043,14502942043,15420174043,15338038043,1
14522990046,14522990046,15420174043,15338038043,1
14543038046,14543038046,15420174043,15338038043,1
14563590046,14563590046,15420174043,15338038043,1
14584222047,14584222047,15420174043,15338038043,1
14604590043,14604590043,15420174043,15338038043,1
14624686043,14624686043,15420174043,15338038043,1
14644926044,14644926044,15420174043,15338038043,1
14665534047,14665534047,15420174043,15338038043,1
14685662047,14685662047,15420174043,15338038043,1
14705742043,14705742043,15420174043,15338038043,1
14726390043,14726390043,15420174043,15338038043,1
14746894045,14746894045,15420174043,15338038043,1
14767126044,14767126044,15420174043,15338038043,1
14787246045,14787246045,15420174043,15338038043,1
14807430047,14807430047,15420174043,15338038043,1
14827542047,14827542047,15420174043,15338038043,1
14847590043,14847590043,15420174043,15338038043,1
14867990047,14867990047,15420174043,15338038043,1
14888222043,14888222043,15420174043,15338038043,1
14908758043,14908758043,15420174043,15338038043,1
14928958043,14928958043,15420174043,15338038043,1
14949438043,14949438043,15420174043,15338038043,1
14969934043,14969934043,15420174043,15338038043,1
14990030043,14990030043,15420174043,15338038043,1
15010878043,15010878043,15420174043,15338038043,1
15031350043,15031350043,15420174043,15338038043,1
15051566043,15051566043,15420174043,15338038043,1
15072358044,15072358044,15420174043,15338038043,1
15092798043,15092798043,15420174043,15338038043,1
15113174043,15113174043,15420174043,15338038043,1
15133374047,15133374047,15420174043,15338038043,1
15154158043,15154158043,15420174043,15338038043,1
15174966043,15174966043,15420174043,15338038043,1
15195414043,15195414043,15420174043,15338038043,1
15216110043,15216110043,15420174043,15338038043,1
15236726043,15236726043,15420174043,15338038043,1
15256902043,15256902043,15420174043,15338038043,1
15276958043,15276958043,15420174043,15338038043,1
15297206043,15297206043,15420174043,15338038043,1
15317926043,15317926043,15420174043,15338038043,1
15338038043,15338038043,15420174043,15338038043,1
15358646043,15358646043,15420174043,15338038043,1
15379342043,15379342043,15420174043,15338038043,1
15399486043,15399486043,15420174043,15338038043,1
15420174043,15420174043,15420174043,15338038043,0
14217190043,14217190043,15440486043,15338038043,1
14237926043,14237926043,15440486043,15338038043,1
14257934044,14257934044,15440486043,15338038043,1
14278350047,14278350047,15440486043,15338038043,1
14298822047,14298822047,15440486043,15338038043,1
14319302045,14319302045,15440486043,15338038043,1
14339902047,14339902047,15440486043,15338038043,1
14360278043,14360278043,15440486043,15338038043,1
14380870043,14380870043,15440486043,15338038043,1
14401350045,14401350045,15440486043,15338038043,1
14421478044,14421478044,15440486043,15338038043,1
14441846043,14441846043,15440486043,15338038043,1
14462022043,14462022043,15440486043,15338038043,1
14482382043,14482382043,15440486043,15338038043,1
14502942043,14502942043,15440486043,15338038043,1
14522990046,14522990046,15440486043,15338038043,1
14543038046,14543038046,15440486043,15338038043,1
14563590046,14563590046,15440486043,15338038043,1
14584222047,14584222047,15440486043,15338038043,1
14604590043,14604590043,15440486043,15338038043,1
14624686043,14624686043,15440486043,15338038043,1
14644926044,14644926044,15440486043,15338038043,1
14665534047,14665534047,15440486043,15338038043,1
14685662047,14685662047,15440486043,15338038043,1
14705742043,14705742043,15440486043,15338038043,1
14726390043,14726390043,15440486043,15338038043,1
14746894045,14746894045,15440486043,15338038043,1
14767126044,14767126044,15440486043,15338038043,1
14787246045,14787246045,15440486043,15338038043,1
14807430047,14807430047,15440486043,15338038043,1
14827542047,14827542047,15440486043,15338038043,1
14847590043,14847590043,15440486043,15338038043,1
14867990047,14867990047,15440486043,15338038043,1
14888222043,14888222043,15440486043,15338038043,1
14908758043,14908758043,15440486043,15338038043,1
14928958043,14928958043,15440486043,15338038043,1
14949438043,14949438043,15440486043,15338038043,1
14969934043,14969934043,15440486043,15338038043,1
14990030043,14990030043,15440486043,15338038043,1
15010878043,15010878043,15440486043,15338038043,1
15031350043,15031350043,15440486043,15338038043,1
15051566043,15051566043,15440486043,15338038043,1
15072358044,15072358044,15440486043,15338038043,1
15092798043,15092798043,15440486043,15338038043,1
15113174043,15113174043,15440486043,15338038043,1
15133374047,15133374047,15440486043,15338038043,1
15154158043,15154158043,15440486043,15338038043,1
15174966043,15174966043,15440486043,15338038043,1
15195414043,15195414043,15440486043,15338038043,1
15216110043,15216110043,15440486043,15338038043,1
15236726043,15236726043,15440486043,15338038043,1
15256902043,15256902043,15440486043,15338038043,1
15276958043,15276958043,15440486043,15338038043,1
15297206043,15297206043,15440486043,15338038043,1
15317926043,15317926043,15440486043,15338038043,1
15338038043,15338038043,15440486043,15338038043,1
15358646043,15358646043,15440486043,15338038043,1
15379342043,15379342043,15440486043,15338038043,1
15399486043,15399486043,15440486043,15338038043,1
15420174043,15420174043,15440486043,15338038043,1
15440486043,15440486043,15440486043,15338038043,0
14217190043,14217190043,15460806043,15338038043,1
14237926043,14237926043,15460806043,15338038043,1
14257934044,14257934044,15460806043,15338038043,1
14278350047,14278350047,15460806043,15338038043,1
14298822047,14298822047,15460806043,15338038043,1
14319302045,14319302045,15460806043,15338038043,1
14339902047,14339902047,15460806043,15338038043,1
14360278043,14360278043,15460806043,15338038043,1
14380870043,14380870043,15460806043,15338038043,1
14401350045,14401350045,15460806043,15338038043,1
14421478044,14421478044,15460806043,15338038043,1
14441846043,14441846043,15460806043,15338038043,1
14462022043,14462022043,15460806043,15338038043,1
14482382043,14482382043,15460806043,15338038043,1
14502942043,14502942043,15460806043,15338038043,1
14522990046,14522990046,15460806043,15338038043,1
14543038046,14543038046,15460806043,15338038043,1
14563590046,14563590046,15460806043,15338038043,1
14584222047,14584222047,15460806043,15338038043,1
14604590043,14604590043,15460806043,15338038043,1
14624686043,14624686043,15460806043,15338038043,1
14644926044,14644926044,15460806043,15338038043,1
14665534047,14665534047,15460806043,15338038043,1
14685662047,14685662047,15460806043,15338038043,1
14705742043,14705742043,15460806043,15338038043,1
14726390043,14726390043,15460806043,15338038043,1
14746894045,14746894045,15460806043,15338038043,1
14767126044,14767126044,15460806043,15338038043,1
14787246045,14787246045,15460806043,15338038043,1
14807430047,14807430047,15460806043,15338038043,1
14827542047,14827542047,15460806043,15338038043,1
14847590043,14847590043,15460806043,15338038043,1
14867990047,14867990047,15460806043,15338038043,1
14888222043,14888222043,15460806043,15338038043,1
14908758043,14908758043,15460806043,15338038043,1
14928958043,14928958043,15460806043,15338038043,1
14949438043,14949438043,15460806043,15338038043,1
14969934043,14969934043,15460806043,15338038043,1
14990030043,14990030043,15460806043,15338038043,1
15010878043,15010878043,15460806043,15338038043,1
15031350043,15031350043,15460806043,15338038043,1
15051566043,15051566043,15460806043,15338038043,1
15072358044,15072358044,15460806043,15338038043,1
15092798043,15092798043,15460806043,15338038043,1
15113174043,15113174043,15460806043,15338038043,1
15133374047,15133374047,15460806043,15338038043,1
15154158043,15154158043,15460806043,15338038043,1
15174966043,15174966043,15460806043,15338038043,1
15195414043,15195414043,15460806043,15338038043,1
15216110043,15216110043,15460806043,15338038043,1
15236726043,15236726043,15460806043,15338038043,1
15256902043,15256902043,15460806043,15338038043,1
15276958043,15276958043,15460806043,15338038043,1
15297206043,15297206043,15460806043,15338038043,1
15317926043,15317926043,15460806043,15338038043,1
15338038043,15338038043,15460806043,15338038043,1
15358646043,15358646043,15460806043,15338038043,1
15379342043,15379342043,15460806043,15338038043,1
15399486043,15399486043,15460806043,15338038043,1
15420174043,15420174043,15460806043,15338038043,1
15440486043,15440486043,15460806043,15338038043,1
15460806043,15460806043,15460806043,15338038043,0
14217190043,14217190043,15481590047,15338038043,1
14237926043,14237926043,15481590047,15338038043,1
14257934044,14257934044,15481590047,15338038043,1
14278350047,14278350047,15481590047,15338038043,1
14298822047,14298822047,15481590047,15338038043,1
14319302045,14319302045,15481590047,15338038043,1
14339902047,14339902047,15481590047,15338038043,1
14360278043,14360278043,15481590047,15338038043,1
14380870043,14380870043,15481590047,15338038043,1
14401350045,14401350045,15481590047,15338038043,1
14421478044,14421478044,15481590047,15338038043,1
14441846043,14441846043,15481590047,15338038043,1
14462022043,14462022043,15481590047,15338038043,1
14482382043,14482382043,15481590047,15338038043,1
14502942043,14502942043,15481590047,15338038043,1
14522990046,14522990046,15481590047,15338038043,1
14543038046,14543038046,15481590047,15338038043,1
14563590046,14563590046,15481590047,15338038043,1
14584222047,14584222047,15481590047,15338038043,1
14604590043,14604590043,15481590047,15338038043,1
14624686043,14624686043,15481590047,15338038043,1
14644926044,14644926044,15481590047,15338038043,1
14665534047,14665534047,15481590047,15338038043,1
14685662047,14685662047,15481590047,15338038043,1
14705742043,14705742043,15481590047,15338038043,1
14726390043,14726390043,15481590047,15338038043,1
14746894045,14746894045,15481590047,15338038043,1
14767126044,14767126044,15481590047,15338038043,1
14787246045,14787246045,15481590047,15338038043,1
14807430047,14807430047,15481590047,15338038043,1
14827542047,14827542047,15481590047,15338038043,1
14847590043,14847590043,15481590047,15338038043,1
14867990047,14867990047,15481590047,15338038043,1
14888222043,14888222043,15481590047,15338038043,1
14908758043,14908758043,15481590047,15338038043,1
14928958043,14928958043,15481590047,15338038043,1
14949438043,14949438043,15481590047,15338038043,1
14969934043,14969934043,15481590047,15338038043,1
14990030043,14990030043,15481590047,15338038043,1
15010878043,15010878043,15481590047,15338038043,1
15031350043,15031350043,15481590047,15338038043,1
15051566043,15051566043,15481590047,15338038043,1
15072358044,15072358044,15481590047,15338038043,1
15092798043,15092798043,15481590047,15338038043,1
15113174043,15113174043,15481590047,15338038043,1
15133374047,15133374047,15481590047,15338038043,1
15154158043,15154158043,15481590047,15338038043,1
15174966043,15174966043,15481590047,15338038043,1
15195414043,15195414043,15481590047,15338038043,1
15216110043,15216110043,15481590047,15338038043,1
15236726043,15236726043,15481590047,15338038043,1
15256902043,15256902043,15481590047,15338038043,1
15276958043,15276958043,15481590047,15338038043,1
15297206043,15297206043,15481590047,15338038043,1
15317926043,15317926043,15481590047,15338038043,1
15338038043,15338038043,15481590047,15338038043,1
15358646043,15358646043,15481590047,15338038043,1
15379342043,15379342043,15481590047,15338038043,1
15399486043,15399486043,15481590047,15338038043,1
15420174043,15420174043,15481590047,15338038043,1
15440486043,15440486043,15481590047,15338038043,1
15460806043,15460806043,15481590047,15338038043,1
15481590047,15481590047,15481590047,15338038043,0
14217190043,14217190043,15502342043,15338038043,1
14237926043,14237926043,15502342043,15338038043,1
14257934044,14257934044,15502342043,15338038043,1
14278350047,14278350047,15502342043,15338038043,1
14298822047,14298822047,15502342043,15338038043,1
14319302045,14319302045,15502342043,15338038043,1
14339902047,14339902047,15502342043,15338038043,1
14360278043,14360278043,15502342043,15338038043,1
14380870043,14380870043,15502342043,15338038043,1
14401350045,14401350045,15502342043,15338038043,1
14421478044,14421478044,15502342043,15338038043,1
14441846043,14441846043,15502342043,15338038043,1
14462022043,14462022043,15502342043,15338038043,1
14482382043,14482382043,15502342043,15338038043,1
14502942043,14502942043,15502342043,15338038043,1
14522990046,14522990046,15502342043,15338038043,1
14543038046,14543038046,15502342043,15338038043,1
14563590046,14563590046,15502342043,15338038043,1
14584222047,14584222047,15502342043,15338038043,1
14604590043,14604590043,15502342043,15338038043,1
14624686043,14624686043,15502342043,15338038043,1
14644926044,14644926044,15502342043,15338038043,1
14665534047,14665534047,15502342043,15338038043,1
14685662047,14685662047,15502342043,15338038043,1
14705742043,14705742043,15502342043,15338038043,1
14726390043,14726390043,15502342043,15338038043,1
14746894045,14746894045,15502342043,15338038043,1
14767126044,14767126044,15502342043,15338038043,1
14787246045,14787246045,15502342043,15338038043,1
14807430047,14807430047,15502342043,15338038043,1
14827542047,14827542047,15502342043,15338038043,1
14847590043,14847590043,15502342043,15338038043,1
14867990047,14867990047,15502342043,15338038043,1
14888222043,14888222043,15502342043,15338038043,1
14908758043,14908758043,15502342043,15338038043,1
14928958043,14928958043,15502342043,15338038043,1
14949438043,14949438043,15502342043,15338038043,1
14969934043,14969934043,15502342043,15338038043,1
14990030043,14990030043,15502342043,15338038043,1
15010878043,15010878043,15502342043,15338038043,1
15031350043,15031350043,15502342043,15338038043,1
15051566043,15051566043,15502342043,15338038043,1
15072358044,15072358044,15502342043,15338038043,1
15092798043,15092798043,15502342043,15338038043,1
15113174043,15113174043,15502342043,15338038043,1
15133374047,15133374047,15502342043,15338038043,1
15154158043,15154158043,15502342043,15338038043,1
15174966043,15174966043,15502342043,15338038043,1
15195414043,15195414043,15502342043,15338038043,1
15216110043,15216110043,15502342043,15338038043,1
15236726043,15236726043,15502342043,15338038043,1
15256902043,15256902043,15502342043,15338038043,1
15276958043,15276958043,15502342043,15338038043,1
15297206043,15297206043,15502342043,15338038043,1
15317926043,15317926043,15502342043,15338038043,1
15338038043,15338038043,15502342043,15338038043,1
15358646043,15358646043,15502342043,15338038043,1
15379342043,15379342043,15502342043,15338038043,1
15399486043,15399486043,15502342043,15338038043,1
15420174043,15420174043,15502342043,15338038043,1
15440486043,15440486043,15502342043,15338038043,1
15460806043,15460806043,15502342043,15338038043,1
15481590047,15481590047,15502342043,15338038043,1
15502342043,15502342043,15502342043,15338038043,0
14217190043,14217190043,15522702043,15460806043,1
14237926043,14237926043,15522702043,15460806043,1
14257934044,14257934044,15522702043,15460806043,1
14278350047,14278350047,15522702043,15460806043,1
14298822047,14298822047,15522702043,15460806043,1
14319302045,14319302045,15522702043,15460806043,1
14339902047,14339902047,15522702043,15460806043,1
14360278043,14360278043,15522702043,15460806043,1
14380870043,14380870043,15522702043,15460806043,1
14401350045,14401350045,15522702043,15460806043,1
14421478044,14421478044,15522702043,15460806043,1
14441846043,14441846043,15522702043,15460806043,1
14462022043,14462022043,15522702043,15460806043,1
14482382043,14482382043,15522702043,15460806043,1
14502942043,14502942043,15522702043,15460806043,1
14522990046,14522990046,15522702043,15460806043,1
14543038046,14543038046,15522702043,15460806043,1
14563590046,14563590046,15522702043,15460806043,1
14584222047,14584222047,15522702043,15460806043,1
14604590043,14604590043,15522702043,15460806043,1
14624686043,14624686043,15522702043,15460806043,1
14644926044,14644926044,15522702043,15460806043,1
14665534047,14665534047,15522702043,15460806043,1
14685662047,14685662047,15522702043,15460806043,1
14705742043,14705742043,15522702043,15460806043,1
14726390043,14726390043,15522702043,15460806043,1
14746894045,14746894045,15522702043,15460806043,1
14767126044,14767126044,15522702043,15460806043,1
14787246045,14787246045,15522702043,15460806043,1
14807430047,14807430047,15522702043,15460806043,1
14827542047,14827542047,15522702043,15460806043,1
14847590043,14847590043,15522702043,15460806043,1
14867990047,14867990047,15522702043,15460806043,1
14888222043,14888222043,15522702043,15460806043,1
14908758043,14908758043,15522702043,15460806043,1
14928958043,14928958043,15522702043,15460806043,1
14949438043,14949438043,15522702043,15460806043,1
14969934043,14969934043,15522702043,15460806043,1
14990030043,14990030043,15522702043,15460806043,1
15010878043,15010878043,15522702043,15460806043,1
15031350043,15031350043,15522702043,15460806043,1
15051566043,15051566043,15522702043,15460806043,1
15072358044,15072358044,15522702043,15460806043,1
15092798043,15092798043,15522702043,15460806043,1
15113174043,15113174043,15522702043,15460806043,1
15133374047,15133374047,15522702043,15460806043,1
15154158043,15154158043,15522702043,15460806043,1
15174966043,15174966043,15522702043,15460806043,1
15195414043,15195414043,15522702043,15460806043,1
15216110043,15216110043,15522702043,15460806043,1
15236726043,15236726043,15522702043,15460806043,1
15256902043,15256902043,15522702043,15460806043,1
15276958043,15276958043,15522702043,15460806043,1
15297206043,15297206043,15522702043,15460806043,1
15317926043,15317926043,15522702043,15460806043,1
15338038043,15338038043,15522702043,15460806043,1
15358646043,15358646043,15522702043,15460806043,1
15379342043,15379342043,15522702043,15460806043,1
15399486043,15399486043,15522702043,15460806043,1
15420174043,15420174043,15522702043,15460806043,1
15440486043,15440486043,15522702043,15460806043,1
15460806043,15460806043,15522702043,15460806043,1
15481590047,15481590047,15522702043,15460806043,1
15502342043,15502342043,15522702043,15460806043,1
15522702043,15522702043,15522702043,15460806043,0
14217190043,14217190043,15543182043,15460806043,1
14237926043,14237926043,15543182043,15460806043,1
14257934044,14257934044,15543182043,15460806043,1
14278350047,14278350047,15543182043,15460806043,1
14298822047,14298822047,15543182043,15460806043,1
14319302045,14319302045,15543182043,15460806043,1
14339902047,14339902047,15543182043,15460806043,1
14360278043,14360278043,15543182043,15460806043,1
14380870043,14380870043,15543182043,15460806043,1
14401350045,14401350045,15543182043,15460806043,1
14421478044,14421478044,15543182043,15460806043,1
14441846043,14441846043,15543182043,15460806043,1
14462022043,14462022043,15543182043,15460806043,1
14482382043,14482382043,15543182043,15460806043,1
14502942043,14502942043,15543182043,15460806043,1
14522990046,14522990046,15543182043,15460806043,1
14543038046,14543038046,15543182043,15460806043,1
14563590046,14563590046,15543182043,15460806043,1
14584222047,14584222047,15543182043,15460806043,1
14604590043,14604590043,15543182043,15460806043,1
14624686043,14624686043,15543182043,15460806043,1
14644926044,14644926044,15543182043,15460806043,1
14665534047,14665534047,15543182043,15460806043,1
14685662047,14685662047,15543182043,15460806043,1
14705742043,14705742043,15543182043,15460806043,1
14726390043,14726390043,15543182043,15460806043,1
14746894045,14746894045,15543182043,15460806043,1
14767126044,14767126044,15543182043,15460806043,1
14787246045,14787246045,15543182043,15460806043,1
14807430047,14807430047,15543182043,15460806043,1
14827542047,14827542047,15543182043,15460806043,1
14847590043,14847590043,15543182043,15460806043,1
14867990047,14867990047,15543182043,15460806043,1
14888222043,14888222043,15543182043,15460806043,1
14908758043,14908758043,15543182043,15460806043,1
14928958043,14928958043,15543182043,15460806043,1
14949438043,14949438043,15543182043,15460806043,1
14969934043,14969934043,15543182043,15460806043,1
14990030043,14990030043,15543182043,15460806043,1
15010878043,15010878043,15543182043,15460806043,1
15031350043,15031350043,15543182043,15460806043,1
15051566043,15051566043,15543182043,15460806043,1
15072358044,15072358044,15543182043,15460806043,1
15092798043,15092798043,15543182043,15460806043,1
15113174043,15113174043,15543182043,15460806043,1
15133374047,15133374047,15543182043,15460806043,1
15154158043,15154158043,15543182043,15460806043,1
15174966043,15174966043,15543182043,15460806043,1
15195414043,15195414043,15543182043,15460806043,1
15216110043,15216110043,15543182043,15460806043,1
15236726043,15236726043,15543182043,15460806043,1
15256902043,15256902043,15543182043,15460806043,1
15276958043,15276958043,15543182043,15460806043,1
15297206043,15297206043,15543182043,15460806043,1
15317926043,15317926043,15543182043,15460806043,1
15338038043,15338038043,15543182043,15460806043,1
15358646043,15358646043,15543182043,15460806043,1
15379342043,15379342043,15543182043,15460806043,1
15399486043,15399486043,15543182043,15460806043,1
15420174043,15420174043,15543182043,15460806043,1
15440486043,15440486043,15543182043,15460806043,1
15460806043,15460806043,15543182043,15460806043,1
15481590047,15481590047,15543182043,15460806043,1
15502342043,15502342043,15543182043,15460806043,1
15522702043,15522702043,15543182043,15460806043,1
15543182043,15543182043,15543182043,15460806043,0
14217190043,14217190043,15563382045,15460806043,1
14237926043,14237926043,15563382045,15460806043,1
14257934044,14257934044,15563382045,15460806043,1
14278350047,14278350047,15563382045,15460806043,1
14298822047,14298822047,15563382045,15460806043,1
14319302045,14319302045,15563382045,15460806043,1
14339902047,14339902047,15563382045,15460806043,1
14360278043,14360278043,15563382045,15460806043,1
14380870043,14380870043,15563382045,15460806043,1
14401350045,14401350045,15563382045,15460806043,1
14421478044,14421478044,15563382045,15460806043,1
14441846043,14441846043,15563382045,15460806043,1
14462022043,14462022043,15563382045,15460806043,1
14482382043,14482382043,15563382045,15460806043,1
14502942043,14502942043,15563382045,15460806043,1
14522990046,14522990046,15563382045,15460806043,1
14543038046,14543038046,15563382045,15460806043,1
14563590046,14563590046,15563382045,15460806043,1
14584222047,14584222047,15563382045,15460806043,1
14604590043,14604590043,15563382045,15460806043,1
14624686043,14624686043,15563382045,15460806043,1
14644926044,14644926044,15563382045,15460806043,1
14665534047,14665534047,15563382045,15460806043,1
14685662047,14685662047,15563382045,15460806043,1
14705742043,14705742043,15563382045,15460806043,1
14726390043,14726390043,15563382045,15460806043,1
14746894045,14746894045,15563382045,15460806043,1
14767126044,14767126044,15563382045,15460806043,1
14787246045,14787246045,15563382045,15460806043,1
14807430047,14807430047,15563382045,15460806043,1
14827542047,14827542047,15563382045,15460806043,1
14847590043,14847590043,15563382045,15460806043,1
14867990047,14867990047,15563382045,15460806043,1
14888222043,14888222043,15563382045,15460806043,1
14908758043,14908758043,15563382045,15460806043,1
14928958043,14928958043,15563382045,15460806043,1
14949438043,14949438043,15563382045,15460806043,1
14969934043,14969934043,15563382045,15460806043,1
14990030043,14990030043,15563382045,15460806043,1
15010878043,15010878043,15563382045,15460806043,1
15031350043,15031350043,15563382045,15460806043,1
15051566043,15051566043,15563382045,15460806043,1
15072358044,15072358044,15563382045,15460806043,1
15092798043,15092798043,15563382045,15460806043,1
15113174043,15113174043,15563382045,15460806043,1
15133374047,15133374047,15563382045,15460806043,1
15154158043,15154158043,15563382045,15460806043,1
15174966043,15174966043,15563382045,15460806043,1
15195414043,15195414043,15563382045,15460806043,1
15216110043,15216110043,15563382045,15460806043,1
15236726043,15236726043,15563382045,15460806043,1
15256902043,15256902043,15563382045,15460806043,1
15276958043,15276958043,15563382045,15460806043,1
15297206043,15297206043,15563382045,15460806043,1
15317926043,15317926043,15563382045,15460806043,1
15338038043,15338038043,15563382045,15460806043,1
15358646043,15358646043,15563382045,15460806043,1
15379342043,15379342043,15563382045,15460806043,1
15399486043,15399486043,15563382045,15460806043,1
15420174043,15420174043,15563382045,15460806043,1
15440486043,15440486043,15563382045,15460806043,1
15460806043,15460806043,15563382045,15460806043,1
15481590047,15481590047,15563382045,15460806043,1
15502342043,15502342043,15563382045,15460806043,1
15522702043,15522702043,15563382045,15460806043,1
15543182043,15543182043,15563382045,15460806043,1
15563382045,15563382045,15563382045,15460806043,0
14217190043,14217190043,15583934043,15460806043,1
14237926043,14237926043,15583934043,15460806043,1
14257934044,14257934044,15583934043,15460806043,1
14278350047,14278350047,15583934043,15460806043,1
14298822047,14298822047,15583934043,15460806043,1
14319302045,14319302045,15583934043,15460806043,1
14339902047,14339902047,15583934043,15460806043,1
14360278043,14360278043,15583934043,15460806043,1
14380870043,14380870043,15583934043,15460806043,1
14401350045,14401350045,15583934043,15460806043,1
14421478044,14421478044,15583934043,15460806043,1
14441846043,14441846043,15583934043,15460806043,1
14462022043,14462022043,15583934043,15460806043,1
14482382043,14482382043,15583934043,15460806043,1
14502942043,14502942043,15583934043,15460806043,1
14522990046,14522990046,15583934043,15460806043,1
14543038046,14543038046,15583934043,15460806043,1
14563590046,14563590046,15583934043,15460806043,1
14584222047,14584222047,15583934043,15460806043,1
14604590043,14604590043,15583934043,15460806043,1
14624686043,14624686043,15583934043,15460806043,1
14644926044,14644926044,15583934043,15460806043,1
14665534047,14665534047,15583934043,15460806043,1
14685662047,14685662047,15583934043,15460806043,1
14705742043,14705742043,15583934043,15460806043,1
14726390043,14726390043,15583934043,15460806043,1
14746894045,14746894045,15583934043,15460806043,1
14767126044,14767126044,15583934043,15460806043,1
14787246045,14787246045,15583934043,15460806043,1
14807430047,14807430047,15583934043,15460806043,1
14827542047,14827542047,15583934043,15460806043,1
14847590043,14847590043,15583934043,15460806043,1
14867990047,14867990047,15583934043,15460806043,1
14888222043,14888222043,15583934043,15460806043,1
14908758043,14908758043,15583934043,15460806043,1
14928958043,14928958043,15583934043,15460806043,1
14949438043,14949438043,15583934043,15460806043,1
14969934043,14969934043,15583934043,15460806043,1
14990030043,14990030043,15583934043,15460806043,1
15010878043,15010878043,15583934043,15460806043,1
15031350043,15031350043,15583934043,15460806043,1
15051566043,15051566043,15583934043,15460806043,1
15072358044,15072358044,15583934043,15460806043,1
15092798043,15092798043,15583934043,15460806043,1
15113174043,15113174043,15583934043,15460806043,1
15133374047,15133374047,15583934043,15460806043,1
15154158043,15154158043,15583934043,15460806043,1
15174966043,15174966043,15583934043,15460806043,1
15195414043,15195414043,15583934043,15460806043,1
15216110043,15216110043,15583934043,15460806043,1
15236726043,15236726043,15583934043,15460806043,1
15256902043,15256902043,15583934043,15460806043,1
15276958043,15276958043,15583934043,15460806043,1
15297206043,15297206043,15583934043,15460806043,1
15317926043,15317926043,15583934043,15460806043,1
15338038043,15338038043,15583934043,15460806043,1
15358646043,15358646043,15583934043,15460806043,1
15379342043,15379342043,15583934043,15460806043,1
15399486043,15399486043,15583934043,15460806043,1
15420174043,15420174043,15583934043,15460806043,1
15440486043,15440486043,15583934043,15460806043,1
15460806043,15460806043,15583934043,15460806043,1
15481590047,15481590047,15583934043,15460806043,1
15502342043,15502342043,15583934043,15460806043,1
15522702043,15522702043,15583934043,15460806043,1
15543182043,15543182043,15583934043,15460806043,1
15563382045,15563382045,15583934043,15460806043,1
15583934043,15583934043,15583934043,15460806043,0
14217190043,14217190043,15604422044,15460806043,1
14237926043,14237926043,15604422044,15460806043,1
14257934044,14257934044,15604422044,15460806043,1
14278350047,14278350047,15604422044,15460806043,1
14298822047,14298822047,15604422044,15460806043,1
14319302045,14319302045,15604422044,15460806043,1
14339902047,14339902047,15604422044,15460806043,1
