seq,t_us,raw,avg,filtered,peak,detector_score,expected_rr_ms,hr_bpm,flags
1774385,14195622043,107.0,110.0,-40.0,1,0.49,844.8,72.1,1
1774386,14195630043,110.0,110.0,-41.0,0,0.524,844.8,72.1,1
1774387,14195638045,111.0,110.0,-41.0,1,0.494,844.8,72.1,1
1774388,14195646043,109.0,110.0,-41.0,0,0.494,844.8,72.1,1
1774389,14195654044,109.0,110.0,-41.0,0,0.494,844.8,72.1,1
1774390,14195662046,108.0,109.0,-41.0,0,0.494,844.8,72.1,1
1774391,14195670045,108.0,109.0,-42.0,0,0.528,844.8,72.1,1
1774392,14195678044,108.0,109.0,-42.0,1,0.498,844.8,72.1,1
1774393,14195686043,111.0,109.0,-41.0,0,0.524,844.8,72.1,1
1774394,14195694043,107.0,109.0,-41.0,1,0.494,844.8,72.1,1
1774395,14195702043,107.0,108.0,-41.0,0,0.494,844.8,72.1,1
1774396,14195710043,111.0,109.0,-41.0,0,0.494,844.8,72.1,1
1774397,14195718047,108.0,109.0,-41.0,0,0.494,844.8,72.1,1
1774398,14195726043,112.0,110.0,-41.0,0,0.493,844.8,72.1,1
1774399,14195734043,108.0,109.0,-40.0,0,0.518,844.8,72.1,1
1774400,14195742047,111.0,110.0,-40.0,1,0.489,844.8,72.1,1
1774401,14195750043,111.0,110.0,-39.0,0,0.514,844.8,72.1,1
1774402,14195758043,111.0,110.0,-39.0,1,0.484,844.8,72.1,1
1774403,14195766043,112.0,111.0,-38.0,0,0.509,844.8,72.1,1
1774404,14195774043,115.0,112.0,-38.0,1,0.479,844.8,72.1,1
1774405,14195782043,112.0,112.0,-37.0,0,0.504,844.8,72.1,1
1774406,14195790043,114.0,112.0,-36.0,0,0.5,844.8,72.1,1
1774407,14195798043,113.0,112.0,-36.0,1,0.47,844.8,72.1,1
1774408,14195806046,116.0,113.0,-35.0,0,0.495,844.8,72.1,1
1774409,14195814043,112.0,113.0,-35.0,1,0.465,844.8,72.1,1
1774410,14195822043,119.0,114.0,-34.0,0,0.49,844.8,72.1,1
1774411,14195830043,116.0,115.0,-33.0,0,0.485,844.8,72.1,1
1774412,14195838043,119.0,116.0,-32.0,0,0.481,844.8,72.1,1
1774413,14195846046,121.0,117.0,-31.0,0,0.476,844.8,72.1,1
1774414,14195854046,119.0,118.0,-30.0,0,0.471,844.8,72.1,1
1774415,14195862043,119.0,118.0,-29.0,0,0.467,844.8,72.1,1
1774416,14195870043,119.0,118.0,-29.0,1,0.437,844.8,72.1,1
1774417,14195878043,120.0,119.0,-28.0,0,0.462,844.8,72.1,1
1774418,14195886043,123.0,120.0,-27.0,0,0.457,844.8,72.1,1
1774419,14195894043,122.0,120.0,-26.0,0,0.453,844.8,72.1,1
1774420,14195902046,124.0,121.0,-25.0,0,0.448,844.8,72.1,1
1774421,14195910044,126.0,122.0,-24.0,0,0.443,844.8,72.1,1
1774422,14195918045,124.0,123.0,-23.0,0,0.439,844.8,72.1,1
1774423,14195926045,126.0,124.0,-23.0,1,0.408,844.8,72.1,1
1774424,14195934043,127.0,124.0,-22.0,0,0.434,844.8,72.1,1
1774425,14195942043,130.0,126.0,-21.0,0,0.429,844.8,72.1,1
1774426,14195950043,127.0,126.0,-20.0,0,0.424,844.8,72.1,1
1774427,14195958043,131.0,127.0,-19.0,0,0.419,844.8,72.1,1
1774428,14195966043,127.0,127.0,-18.0,0,0.415,844.8,72.1,1
1774429,14195974045,130.0,128.0,-17.0,0,0.41,844.8,72.1,1
1774430,14195982043,134.0,129.0,-16.0,0,0.405,844.8,72.1,1
1774431,14195990045,135.0,131.0,-15.0,0,0.4,844.8,72.1,1
1774432,14195998046,141.0,133.0,-14.0,0,0.395,844.8,72.1,1
1774433,14196006044,141.0,135.0,-12.0,0,0.421,844.8,72.1,1
1774434,14196014045,149.0,138.0,-10.0,0,0.411,844.8,72.1,1
1774435,14196022043,159.0,143.0,-7.0,0,0.433,844.8,72.1,1
1774436,14196030043,171.0,150.0,-3.0,0,0.449,844.8,72.1,1
1774437,14196038043,183.0,158.0,2.0,0,0.497,844.8,72.1,1
1774438,14196046045,195.0,167.0,8.0,0,0.549,844.8,72.1,1
1774439,14196054043,205.0,176.0,15.0,0,0.601,844.8,72.1,1
1774440,14196062043,219.0,187.0,23.0,0,0.656,844.8,72.1,1
1774441,14196070045,228.0,197.0,32.0,0,0.712,844.8,72.1,1
1774442,14196078043,234.0,206.0,40.0,0,0.737,844.8,72.1,1
1774443,14196086043,244.0,215.0,49.0,0,0.789,844.8,72.1,1
1774444,14196094047,249.0,223.0,57.0,0,0.807,844.8,72.1,1
1774445,14196102043,258.0,232.0,65.0,0,0.834,844.8,72.1,1
1774446,14196110043,260.0,239.0,73.0,0,0.856,844.8,72.1,1
1774447,14196118043,266.0,245.0,80.0,0,0.856,844.8,72.1,1
1774448,14196126043,261.0,249.0,86.0,0,0.847,844.8,72.1,1
1774449,14196134045,259.0,251.0,91.0,0,0.831,844.8,72.1,1
1774450,14196142043,261.0,254.0,95.0,0,0.808,844.8,72.1,1
1774451,14196150043,259.0,255.0,98.0,0,0.78,844.8,72.1,1
1774452,14196158043,255.0,255.0,100.0,0,0.748,844.8,72.1,1
1774453,14196166043,252.0,254.0,100.0,1,0.682,844.8,72.1,17
1774454,14196174046,247.0,253.0,100.0,0,0.68,844.8,72.1,17
1774455,14196182044,241.0,250.0,99.0,0,0.709,844.8,72.1,17
1774456,14196190043,236.0,246.0,98.0,0,0.706,844.8,72.1,17
1774457,14196198043,229.0,242.0,95.0,0,0.768,844.8,72.1,17
1774458,14196206043,219.0,237.0,91.0,0,0.791,844.8,72.1,17
1774459,14196214043,213.0,231.0,87.0,0,0.781,844.8,72.1,17
1774460,14196222043,208.0,225.0,82.0,0,0.797,844.8,72.1,17
1774461,14196230047,200.0,219.0,77.0,0,0.783,844.8,72.1,17
1774462,14196238043,196.0,214.0,71.0,0,0.789,844.8,72.1,17
1774463,14196246043,187.0,207.0,65.0,0,0.768,844.8,72.1,17
1774464,14196254043,182.0,201.0,59.0,0,0.745,844.8,72.1,17
1774465,14196262043,176.0,195.0,53.0,0,0.721,844.8,72.1,17
1774466,14196270047,173.0,190.0,47.0,0,0.695,844.8,72.1,17
1774467,14196278046,166.0,184.0,41.0,0,0.669,844.8,72.1,17
1774468,14196286044,164.0,179.0,36.0,0,0.621,844.8,72.1,17
1774469,14196294043,156.0,173.0,30.0,0,0.618,844.8,72.1,17
1774470,14196302047,154.0,169.0,24.0,0,0.591,844.8,72.1,17
1774471,14196310043,150.0,164.0,19.0,0,0.543,844.8,72.1,17
1774472,14196318043,148.0,160.0,14.0,0,0.521,844.8,72.1,17
1774473,14196326043,148.0,157.0,10.0,0,0.475,844.8,72.1,17
1774474,14196334047,148.0,155.0,6.0,0,0.459,844.8,72.1,17
1774475,14196342047,147.0,153.0,3.0,0,0.415,844.8,72.1,17
1774476,14196350043,148.0,152.0,1.0,0,0.376,844.8,72.1,17
1774477,14196358043,143.0,150.0,-2.0,0,0.42,844.8,72.1,17
1774478,14196366045,143.0,148.0,-4.0,0,0.396,844.8,72.1,17
1774479,14196374043,142.0,147.0,-6.0,0,0.404,844.8,72.1,17
1774480,14196382047,139.0,145.0,-8.0,0,0.413,844.8,72.1,17
1774481,14196390047,139.0,143.0,-10.0,0,0.422,844.8,72.1,17
1774482,14196398043,134.0,141.0,-12.0,0,0.431,844.8,72.1,17
1774483,14196406047,132.0,139.0,-14.0,0,0.44,844.8,72.1,17
1774484,14196414043,127.0,136.0,-16.0,0,0.449,844.8,72.1,17
1774485,14196422043,127.0,134.0,-18.0,0,0.459,844.8,72.1,17
1774486,14196430043,123.0,131.0,-20.0,0,0.468,844.8,72.1,17
1774487,14196438043,121.0,129.0,-22.0,0,0.478,844.8,72.1,17
1774488,14196446043,116.0,126.0,-25.0,0,0.524,844.8,72.1,17
1774489,14196454047,116.0,123.0,-27.0,0,0.501,844.8,72.1,17
1774490,14196462047,114.0,121.0,-29.0,0,0.511,844.8,72.1,17
1774491,14196470046,111.0,119.0,-31.0,0,0.52,844.8,72.1,17
1774492,14196478046,111.0,117.0,-34.0,0,0.566,844.8,72.1,17
1774493,14196486044,112.0,116.0,-35.0,0,0.506,844.8,72.1,17
1774494,14196494047,108.0,114.0,-37.0,0,0.548,844.8,72.1,17
1774495,14196502045,108.0,112.0,-38.0,0,0.52,844.8,72.1,17
1774496,14196510043,107.0,111.0,-40.0,0,0.561,844.8,72.1,17
1774497,14196518047,105.0,110.0,-41.0,0,0.533,844.8,72.1,17
1774498,14196526044,107.0,109.0,-42.0,0,0.537,844.8,72.1,17
1774499,14196534046,108.0,109.0,-43.0,0,0.542,844.8,72.1,17
1774500,14196542047,106.0,108.0,-43.0,1,0.511,844.8,72.1,17
1774501,14196550047,105.0,107.0,-44.0,0,0.546,844.8,72.1,17
1774502,14196558043,105.0,107.0,-45.0,0,0.55,844.8,72.1,17
1774503,14196566043,105.0,106.0,-45.0,1,0.519,844.8,72.1,17
1774504,14196574043,109.0,107.0,-45.0,0,0.519,844.8,72.1,17
1774505,14196582043,109.0,107.0,-45.0,0,0.519,844.8,72.1,17
1774506,14196590043,107.0,107.0,-44.0,0,0.545,844.8,72.1,17
1774507,14196598045,106.0,107.0,-44.0,1,0.514,844.8,72.1,17
1774508,14196606043,109.0,108.0,-44.0,0,0.514,844.8,72.1,17
1774509,14196614045,110.0,108.0,-44.0,0,0.514,844.8,72.1,17
1774510,14196622045,111.0,109.0,-43.0,0,0.54,844.8,72.1,17
1774511,14196630043,109.0,109.0,-42.0,0,0.535,844.8,72.1,17
1774512,14196638047,109.0,109.0,-42.0,1,0.505,844.8,72.1,17
1774513,14196646043,112.0,110.0,-41.0,0,0.53,844.8,72.1,17
1774514,14196654044,112.0,110.0,-41.0,1,0.5,844.8,72.1,17
1774515,14196662043,112.0,111.0,-40.0,0,0.526,844.8,72.1,17
1774516,14196670044,110.0,110.0,-39.0,0,0.521,844.8,72.1,17
1774517,14196678043,113.0,111.0,-39.0,1,0.49,844.8,72.1,17
1774518,14196686043,116.0,112.0,-38.0,0,0.516,844.8,72.1,17
1774519,14196694043,112.0,112.0,-37.0,0,0.511,844.8,72.1,17
1774520,14196702043,116.0,113.0,-36.0,0,0.506,844.8,72.1,17
1774521,14196710046,115.0,114.0,-36.0,1,0.476,844.8,72.1,17
1774522,14196718043,116.0,114.0,-35.0,0,0.501,844.8,72.1,17
1774523,14196726043,115.0,114.0,-34.0,0,0.497,844.8,72.1,17
1774524,14196734043,116.0,115.0,-34.0,1,0.466,844.8,72.1,17
1774525,14196742046,117.0,115.0,-33.0,0,0.491,844.8,72.1,17
1774526,14196750043,120.0,116.0,-32.0,0,0.487,844.8,72.1,17
1774527,14196758047,119.0,117.0,-31.0,0,0.482,844.8,72.1,17
1774528,14196766047,122.0,118.0,-30.0,0,0.477,844.8,72.1,17
1774529,14196774043,121.0,119.0,-29.0,0,0.472,844.8,72.1,17
1774530,14196782043,123.0,120.0,-28.0,0,0.467,844.8,72.1,17
1774531,14196790045,121.0,120.0,-27.0,0,0.463,844.8,72.1,17
1774532,14196798043,126.0,122.0,-26.0,0,0.458,844.8,72.1,17
1774533,14196806046,125.0,122.0,-25.0,0,0.453,844.8,72.1,17
1774534,14196814044,126.0,123.0,-24.0,0,0.448,844.8,72.1,17
1774535,14196822045,126.0,124.0,-23.0,0,0.443,844.8,72.1,17
1774536,14196830043,126.0,124.0,-22.0,0,0.438,844.8,72.1,17
1774537,14196838046,127.0,125.0,-22.0,1,0.406,844.8,72.1,17
1774538,14196846043,132.0,127.0,-21.0,0,0.433,844.8,72.1,17
1774539,14196854047,127.0,127.0,-20.0,0,0.428,844.8,72.1,17
1774540,14196862045,131.0,128.0,-19.0,0,0.423,844.8,72.1,17
1774541,14196870043,127.0,128.0,-18.0,0,0.418,844.8,72.1,17
1774542,14196878044,127.0,127.0,-18.0,1,0.383,844.8,72.1,17
1774543,14196886047,131.0,128.0,-17.0,0,0.411,844.8,72.1,17
1774544,14196894044,131.0,129.0,-16.0,0,0.406,844.8,72.1,17
1774545,14196902043,132.0,130.0,-16.0,1,0.371,844.8,72.1,17
1774546,14196910043,132.0,130.0,-15.0,0,0.4,844.8,72.1,17
1774547,14196918045,132.0,131.0,-14.0,0,0.394,844.8,72.1,17
1774548,14196926043,136.0,132.0,-14.0,1,0.359,844.8,72.1,17
1774549,14196934046,141.0,134.0,-12.0,0,0.419,844.8,72.1,17
1774550,14196942043,146.0,137.0,-11.0,0,0.377,844.8,72.1,17
1774551,14196950045,153.0,141.0,-8.0,0,0.435,844.8,72.1,17
1774552,14196958043,164.0,147.0,-5.0,0,0.421,844.8,72.1,17
1774553,14196966043,170.0,152.0,-1.0,0,0.466,844.8,72.1,17
1774554,14196974046,180.0,159.0,4.0,0,0.52,844.8,72.1,17
1774555,14196982046,193.0,167.0,9.0,0,0.545,844.8,72.1,17
1774556,14196990043,205.0,176.0,16.0,0,0.625,844.8,72.1,17
1774557,14196998047,217.0,186.0,23.0,0,0.661,844.8,72.1,17
1774558,14197006043,225.0,196.0,31.0,0,0.717,844.8,72.1,17
1774559,14197014043,237.0,206.0,40.0,0,0.771,844.8,72.1,17
1774560,14197022047,244.0,215.0,48.0,0,0.793,844.8,72.1,17
1774561,14197030043,254.0,224.0,57.0,0,0.838,844.8,72.1,17
1774562,14197038043,261.0,233.0,65.0,0,0.851,844.8,72.1,17
1774563,14197046043,264.0,241.0,73.0,0,0.871,844.8,72.1,17
1774564,14197054043,261.0,246.0,80.0,0,0.87,844.8,72.1,17
1774565,14197062047,266.0,251.0,87.0,0,0.882,844.8,72.1,17
1774566,14197070046,263.0,254.0,92.0,0,0.844,844.8,72.1,17
1774567,14197078043,262.0,256.0,96.0,0,0.819,844.8,72.1,17
1774568,14197086046,260.0,257.0,99.0,0,0.788,844.8,72.1,17
1774569,14197094045,255.0,256.0,101.0,0,0.754,844.8,72.1,17
1774570,14197102045,252.0,255.0,101.0,1,0.684,844.8,72.1,17
1774571,14197110046,247.0,253.0,101.0,0,0.683,844.8,72.1,17
1774572,14197118043,242.0,251.0,100.0,0,0.712,844.8,72.1,17
1774573,14197126044,234.0,247.0,98.0,0,0.743,844.8,72.1,17
1774574,14197134043,228.0,242.0,95.0,0,0.772,844.8,72.1,17
1774575,14197142043,221.0,237.0,91.0,0,0.796,844.8,72.1,17
1774576,14197150043,218.0,232.0,87.0,0,0.785,844.8,72.1,17
1774577,14197158043,209.0,227.0,82.0,0,0.801,844.8,72.1,17
1774578,14197166043,202.0,221.0,77.0,0,0.786,844.8,72.1,17
1774579,14197174043,193.0,214.0,71.0,0,0.792,844.8,72.1,17
1774580,14197182043,185.0,207.0,65.0,0,0.77,844.8,72.1,17
1774581,14197190043,176.0,199.0,59.0,0,0.747,844.8,72.1,17
1774582,14197198043,172.0,193.0,52.0,0,0.739,844.8,72.1,17
1774583,14197206043,168.0,187.0,45.0,0,0.708,844.8,72.1,17
1774584,14197214043,164.0,181.0,39.0,0,0.66,844.8,72.1,17
1774585,14197222043,156.0,175.0,33.0,0,0.632,844.8,72.1,17
1774586,14197230043,154.0,170.0,27.0,0,0.603,844.8,72.1,17
1774587,14197238043,148.0,165.0,21.0,0,0.576,844.8,72.1,17
1774588,14197246047,146.0,160.0,16.0,0,0.528,844.8,72.1,17
1774589,14197254043,147.0,157.0,11.0,0,0.506,844.8,72.1,17
1774590,14197262043,144.0,154.0,6.0,0,0.484,844.8,72.1,17
1774591,14197270043,142.0,151.0,3.0,0,0.411,844.8,72.1,17
1774592,14197278043,140.0,148.0,-1.0,0,0.454,844.8,72.1,17
1774593,14197286043,140.0,146.0,-4.0,0,0.435,844.8,72.1,17
1774594,14197294046,140.0,145.0,-7.0,0,0.448,844.8,72.1,17
1774595,14197302043,140.0,144.0,-9.0,0,0.424,844.8,72.1,17
1774596,14197310048,138.0,142.0,-11.0,0,0.433,844.8,72.1,17
1774597,14197318046,137.0,141.0,-12.0,0,0.405,844.8,72.1,17
1774598,14197326043,134.0,139.0,-14.0,0,0.447,844.8,72.1,17
1774599,14197334044,136.0,138.0,-15.0,0,0.419,844.8,72.1,17
1774600,14197342043,133.0,137.0,-17.0,0,0.461,844.8,72.1,17
1774601,14197350043,132.0,136.0,-18.0,0,0.433,844.8,72.1,17
1774602,14197358045,127.0,134.0,-20.0,0,0.476,844.8,72.1,17
1774603,14197366043,124.0,131.0,-21.0,0,0.448,844.8,72.1,17
1774604,14197374044,122.0,129.0,-23.0,0,0.49,844.8,72.1,17
1774605,14197382043,118.0,126.0,-25.0,0,0.5,844.8,72.1,17
1774606,14197390047,118.0,124.0,-27.0,0,0.509,844.8,72.1,17
1774607,14197398044,117.0,123.0,-29.0,0,0.518,844.8,72.1,17
1774608,14197406046,116.0,121.0,-30.0,0,0.49,844.8,72.1,17
1774609,14197414047,117.0,120.0,-32.0,0,0.532,844.8,72.1,17
1774610,14197422043,118.0,120.0,-33.0,0,0.504,844.8,72.1,17
1774611,14197430043,112.0,118.0,-34.0,0,0.509,844.8,72.1,17
1774612,14197438043,112.0,116.0,-35.0,0,0.513,844.8,72.1,17
1774613,14197446047,111.0,115.0,-37.0,0,0.555,844.8,72.1,17
1774614,14197454043,111.0,114.0,-38.0,0,0.527,844.8,72.1,17
1774615,14197462047,108.0,113.0,-39.0,0,0.531,844.8,72.1,17
1774616,14197470045,108.0,111.0,-40.0,0,0.535,844.8,72.1,17
1774617,14197478043,108.0,111.0,-41.0,0,0.539,844.8,72.1,17
1774618,14197486043,107.0,110.0,-41.0,1,0.508,844.8,72.1,17
1774619,14197494046,104.0,108.0,-42.0,0,0.543,844.8,72.1,17
1774620,14197502047,103.0,107.0,-43.0,0,0.547,844.8,72.1,17
1774621,14197510047,106.0,107.0,-44.0,0,0.551,844.8,72.1,17
1774622,14197518043,105.0,106.0,-44.0,1,0.52,844.8,72.1,17
1774623,14197526045,110.0,107.0,-44.0,0,0.519,844.8,72.1,17
1774624,14197534043,108.0,107.0,-44.0,0,0.519,844.8,72.1,17
1774625,14197542047,109.0,108.0,-44.0,0,0.518,844.8,72.1,17
1774626,14197550043,110.0,108.0,-43.0,0,0.544,844.8,72.1,17
1774627,14197558045,109.0,109.0,-43.0,1,0.513,844.8,72.1,17
1774628,14197566043,112.0,109.0,-42.0,0,0.539,844.8,72.1,17
1774629,14197574043,111.0,110.0,-42.0,1,0.508,844.8,72.1,17
1774630,14197582043,112.0,110.0,-41.0,0,0.534,844.8,72.1,17
1774631,14197590043,112.0,111.0,-40.0,0,0.529,844.8,72.1,17
1774632,14197598043,110.0,111.0,-40.0,1,0.498,844.8,72.1,17
1774633,14197606043,113.0,111.0,-39.0,0,0.524,844.8,72.1,17
1774634,14197614043,113.0,112.0,-39.0,1,0.493,844.8,72.1,17
1774635,14197622043,114.0,112.0,-38.0,0,0.519,844.8,72.1,17
1774636,14197630044,116.0,113.0,-37.0,0,0.514,844.8,72.1,17
1774637,14197638044,119.0,115.0,-36.0,0,0.509,844.8,72.1,17
1774638,14197646045,118.0,115.0,-35.0,0,0.505,844.8,72.1,17
1774639,14197654045,116.0,116.0,-34.0,0,0.5,844.8,72.1,17
1774640,14197662046,120.0,117.0,-33.0,0,0.495,844.8,72.1,17
1774641,14197670043,120.0,117.0,-32.0,0,0.49,844.8,72.1,17
1774642,14197678043,121.0,118.0,-31.0,0,0.485,844.8,72.1,17
1774643,14197686046,124.0,120.0,-30.0,0,0.48,844.8,72.1,17
1774644,14197694043,123.0,120.0,-29.0,0,0.475,844.8,72.1,17
1774645,14197702045,124.0,121.0,-28.0,0,0.47,844.8,72.1,17
1774646,14197710044,122.0,121.0,-27.0,0,0.465,844.8,72.1,17
1774647,14197718043,122.0,122.0,-26.0,0,0.46,844.8,72.1,17
1774648,14197726043,124.0,122.0,-25.0,0,0.455,844.8,72.1,17
1774649,14197734046,125.0,123.0,-25.0,1,0.422,844.8,72.1,17
1774650,14197742043,123.0,123.0,-24.0,0,0.45,844.8,72.1,17
1774651,14197750045,127.0,124.0,-23.0,0,0.445,844.8,72.1,17
1774652,14197758047,120.0,123.0,-23.0,1,0.411,844.8,72.1,17
1774653,14197766043,126.0,124.0,-23.0,0,0.41,844.8,72.1,17
1774654,14197774044,127.0,124.0,-22.0,0,0.438,844.8,72.1,17
1774655,14197782044,127.0,125.0,-21.0,0,0.432,844.8,72.1,17
1774656,14197790047,125.0,125.0,-21.0,1,0.397,844.8,72.1,17
1774657,14197798045,131.0,127.0,-20.0,0,0.426,844.8,72.1,17
1774658,14197806043,133.0,128.0,-19.0,0,0.42,844.8,72.1,17
1774659,14197814044,132.0,129.0,-18.0,0,0.415,844.8,72.1,17
1774660,14197822043,133.0,130.0,-17.0,0,0.409,844.8,72.1,17
1774661,14197830043,140.0,132.0,-16.0,0,0.403,844.8,72.1,17
1774662,14197838047,144.0,135.0,-14.0,0,0.429,844.8,72.1,17
1774663,14197846045,148.0,138.0,-11.0,0,0.451,844.8,72.1,17
1774664,14197854047,151.0,141.0,-9.0,0,0.405,844.8,72.1,17
1774665,14197862043,160.0,146.0,-6.0,0,0.427,844.8,72.1,17
1774666,14197870043,174.0,153.0,-2.0,0,0.464,844.8,72.1,17
1774667,14197878043,185.0,161.0,3.0,0,0.517,844.8,72.1,17
1774668,14197886046,188.0,167.0,9.0,0,0.572,844.8,72.1,17
1774669,14197894043,206.0,177.0,15.0,0,0.603,844.8,72.1,17
1774670,14197902047,218.0,187.0,23.0,0,0.678,844.8,72.1,17
1774671,14197910043,225.0,196.0,31.0,0,0.719,844.8,72.1,17
1774672,14197918043,236.0,206.0,39.0,0,0.757,844.8,72.1,17
1774673,14197926043,246.0,215.0,48.0,0,0.806,844.8,72.1,17
1774674,14197934046,250.0,224.0,56.0,0,0.824,844.8,72.1,17
1774675,14197942046,255.0,231.0,64.0,0,0.85,844.8,72.1,17
1774676,14197950044,260.0,238.0,72.0,0,0.87,844.8,72.1,17
1774677,14197958043,262.0,244.0,79.0,0,0.87,844.8,72.1,17
1774678,14197966044,264.0,249.0,85.0,0,0.86,844.8,72.1,17
1774679,14197974043,265.0,253.0,90.0,0,0.842,844.8,72.1,17
1774680,14197982043,258.0,254.0,94.0,0,0.817,844.8,72.1,17
1774681,14197990043,260.0,255.0,97.0,0,0.787,844.8,72.1,17
1774682,14197998043,252.0,255.0,98.0,0,0.716,844.8,72.1,17
1774683,14198006043,249.0,253.0,99.0,0,0.716,844.8,72.1,17
1774684,14198014043,247.0,252.0,99.0,1,0.681,844.8,72.1,17
1774685,14198022043,240.0,249.0,98.0,0,0.711,844.8,72.1,17
1774686,14198030043,232.0,245.0,96.0,0,0.741,844.8,72.1,17
1774687,14198038047,229.0,241.0,93.0,0,0.77,844.8,72.1,17
1774688,14198046043,220.0,236.0,89.0,0,0.793,844.8,72.1,17
1774689,14198054047,208.0,229.0,85.0,0,0.783,844.8,72.1,17
1774690,14198062045,202.0,223.0,79.0,0,0.821,844.8,72.1,17
1774691,14198070043,194.0,216.0,73.0,0,0.802,844.8,72.1,17
1774692,14198078043,185.0,208.0,67.0,0,0.781,844.8,72.1,17
1774693,14198086047,182.0,202.0,61.0,0,0.758,844.8,72.1,17
1774694,14198094043,175.0,195.0,54.0,0,0.75,844.8,72.1,17
1774695,14198102043,165.0,188.0,47.0,0,0.72,844.8,72.1,17
1774696,14198110043,163.0,182.0,40.0,0,0.688,844.8,72.1,17
1774697,14198118047,156.0,176.0,34.0,0,0.639,844.8,72.1,17
1774698,14198126047,154.0,170.0,28.0,0,0.611,844.8,72.1,17
1774699,14198134043,149.0,165.0,22.0,0,0.583,844.8,72.1,17
1774700,14198142043,149.0,161.0,16.0,0,0.555,844.8,72.1,17
1774701,14198150043,143.0,157.0,11.0,0,0.508,844.8,72.1,17
1774702,14198158043,142.0,153.0,7.0,0,0.462,844.8,72.1,17
1774703,14198166044,145.0,151.0,3.0,0,0.445,844.8,72.1,17
1774704,14198174043,142.0,149.0,-1.0,0,0.453,844.8,72.1,17
1774705,14198182044,143.0,148.0,-4.0,0,0.434,844.8,72.1,17
1774706,14198190043,144.0,147.0,-6.0,0,0.409,844.8,72.1,17
1774707,14198198043,140.0,145.0,-8.0,0,0.418,844.8,72.1,17
1774708,14198206043,142.0,144.0,-9.0,0,0.39,844.8,72.1,17
1774709,14198214044,143.0,144.0,-11.0,0,0.432,844.8,72.1,17
1774710,14198222043,139.0,143.0,-12.0,0,0.404,844.8,72.1,17
1774711,14198230043,137.0,141.0,-13.0,0,0.409,844.8,72.1,17
1774712,14198238047,136.0,140.0,-14.0,0,0.414,844.8,72.1,17
1774713,14198246043,132.0,138.0,-16.0,0,0.456,844.8,72.1,17
1774714,14198254044,131.0,136.0,-17.0,0,0.428,844.8,72.1,17
1774715,14198262043,127.0,134.0,-19.0,0,0.47,844.8,72.1,17
1774716,14198270044,123.0,131.0,-21.0,0,0.48,844.8,72.1,17
1774717,14198278043,118.0,128.0,-23.0,0,0.489,844.8,72.1,17
1774718,14198286043,120.0,126.0,-25.0,0,0.499,844.8,72.1,17
1774719,14198294043,119.0,124.0,-27.0,0,0.508,844.8,72.1,17
1774720,14198302043,116.0,122.0,-29.0,0,0.518,844.8,72.1,17
1774721,14198310043,116.0,121.0,-31.0,0,0.527,844.8,72.1,17
1774722,14198318047,112.0,119.0,-32.0,0,0.499,844.8,72.1,17
1774723,14198326047,110.0,117.0,-34.0,0,0.541,844.8,72.1,17
1774724,14198334047,108.0,115.0,-36.0,0,0.55,844.8,72.1,17
1774725,14198342047,113.0,114.0,-37.0,0,0.522,844.8,72.1,17
1774726,14198350043,108.0,113.0,-39.0,0,0.563,844.8,72.1,17
1774727,14198358044,111.0,112.0,-40.0,0,0.535,844.8,72.1,17
1774728,14198366043,108.0,111.0,-41.0,0,0.539,844.8,72.1,17
1774729,14198374047,110.0,111.0,-41.0,1,0.508,844.8,72.1,17
1774730,14198382047,108.0,110.0,-42.0,0,0.543,844.8,72.1,17
1774731,14198390047,108.0,110.0,-42.0,1,0.512,844.8,72.1,17
1774732,14198398045,108.0,109.0,-43.0,0,0.547,844.8,72.1,17
1774733,14198406047,109.0,109.0,-43.0,1,0.516,844.8,72.1,17
1774734,14198414043,107.0,109.0,-43.0,0,0.515,844.8,72.1,17
1774735,14198422043,108.0,109.0,-43.0,0,0.515,844.8,72.1,17
1774736,14198430043,107.0,108.0,-43.0,0,0.515,844.8,72.1,17
1774737,14198438043,107.0,108.0,-43.0,0,0.514,844.8,72.1,17
1774738,14198446043,106.0,107.0,-43.0,0,0.514,844.8,72.1,17
1774739,14198454045,110.0,108.0,-43.0,0,0.514,844.8,72.1,17
1774740,14198462047,113.0,109.0,-43.0,0,0.513,844.8,72.1,17
1774741,14198470045,112.0,110.0,-42.0,0,0.539,844.8,72.1,17
1774742,14198478047,112.0,110.0,-41.0,0,0.535,844.8,72.1,17
1774743,14198486043,112.0,111.0,-41.0,1,0.504,844.8,72.1,17
1774744,14198494043,116.0,112.0,-40.0,0,0.53,844.8,72.1,17
1774745,14198502043,114.0,113.0,-39.0,0,0.525,844.8,72.1,17
1774746,14198510046,116.0,113.0,-38.0,0,0.52,844.8,72.1,17
1774747,14198518043,116.0,114.0,-37.0,0,0.515,844.8,72.1,17
1774748,14198526047,112.0,114.0,-36.0,0,0.51,844.8,72.1,17
1774749,14198534045,114.0,114.0,-36.0,1,0.479,844.8,72.1,17
1774750,14198542043,116.0,114.0,-35.0,0,0.505,844.8,72.1,17
1774751,14198550043,116.0,115.0,-35.0,1,0.474,844.8,72.1,17
1774752,14198558043,114.0,114.0,-34.0,0,0.5,844.8,72.1,17
1774753,14198566043,116.0,115.0,-34.0,1,0.469,844.8,72.1,17
1774754,14198574043,118.0,116.0,-33.0,0,0.495,844.8,72.1,17
1774755,14198582047,117.0,116.0,-33.0,1,0.464,844.8,72.1,17
1774756,14198590043,118.0,116.0,-32.0,0,0.489,844.8,72.1,17
1774757,14198598043,116.0,116.0,-31.0,0,0.484,844.8,72.1,17
1774758,14198606043,120.0,117.0,-31.0,1,0.453,844.8,72.1,17
1774759,14198614047,124.0,119.0,-30.0,0,0.479,844.8,72.1,17
1774760,14198622047,120.0,119.0,-29.0,0,0.474,844.8,72.1,17
1774761,14198630043,123.0,120.0,-28.0,0,0.469,844.8,72.1,17
1774762,14198638044,120.0,120.0,-27.0,0,0.464,844.8,72.1,17
1774763,14198646045,122.0,121.0,-27.0,1,0.431,844.8,72.1,17
1774764,14198654043,121.0,121.0,-26.0,0,0.458,844.8,72.1,17
1774765,14198662046,123.0,121.0,-26.0,1,0.425,844.8,72.1,17
1774766,14198670043,123.0,122.0,-25.0,0,0.453,844.8,72.1,17
1774767,14198678043,121.0,121.0,-24.0,0,0.447,844.8,72.1,17
1774768,14198686047,122.0,122.0,-24.0,1,0.413,844.8,72.1,17
1774769,14198694043,126.0,123.0,-23.0,0,0.441,844.8,72.1,17
1774770,14198702043,125.0,123.0,-23.0,1,0.406,844.8,72.1,17
1774771,14198710046,120.0,122.0,-23.0,0,0.405,844.8,72.1,17
1774772,14198718047,127.0,124.0,-22.0,0,0.434,844.8,72.1,17
1774773,14198726043,134.0,126.0,-21.0,0,0.428,844.8,72.1,17
1774774,14198734047,143.0,130.0,-19.0,0,0.454,844.8,72.1,17
1774775,14198742047,149.0,135.0,-16.0,0,0.476,844.8,72.1,17
1774776,14198750047,158.0,140.0,-12.0,0,0.49,844.8,72.1,17
1774777,14198758045,170.0,148.0,-8.0,0,0.471,844.8,72.1,17
1774778,14198766043,183.0,156.0,-2.0,0,0.515,844.8,72.1,17
1774779,14198774044,195.0,166.0,5.0,0,0.566,844.8,72.1,17
1774780,14198782046,206.0,175.0,12.0,0,0.601,844.8,72.1,17
1774781,14198790043,220.0,186.0,21.0,0,0.673,844.8,72.1,17
1774782,14198798043,229.0,197.0,29.0,0,0.702,844.8,72.1,17
1774783,14198806045,241.0,207.0,39.0,0,0.771,844.8,72.1,17
1774784,14198814043,252.0,218.0,48.0,0,0.802,844.8,72.1,17
1774785,14198822044,263.0,229.0,58.0,0,0.848,844.8,72.1,17
1774786,14198830043,267.0,238.0,68.0,0,0.878,844.8,72.1,17
1774787,14198838044,274.0,247.0,77.0,0,0.89,844.8,72.1,17
1774788,14198846043,278.0,254.0,85.0,0,0.893,844.8,72.1,17
1774789,14198854044,286.0,262.0,93.0,0,0.904,844.8,72.1,17
1774790,14198862047,285.0,268.0,100.0,0,0.896,844.8,72.1,17
1774791,14198870043,282.0,271.0,106.0,0,0.881,844.8,72.1,17
1774792,14198878043,279.0,273.0,110.0,0,0.83,844.8,72.1,17
1774793,14198886043,276.0,274.0,114.0,0,0.833,844.8,72.1,17
1774794,14198894043,272.0,273.0,115.0,0,0.732,844.8,72.1,17
1774795,14198902043,270.0,273.0,116.0,0,0.732,844.8,72.1,17
1774796,14198910043,261.0,270.0,116.0,1,0.698,844.8,72.1,17
1774797,14198918047,252.0,265.0,114.0,0,0.76,844.8,72.1,17
1774798,14198926043,247.0,261.0,112.0,0,0.757,844.8,72.1,17
1774799,14198934043,242.0,256.0,108.0,0,0.816,844.8,72.1,17
1774800,14198942043,229.0,250.0,104.0,0,0.809,844.8,72.1,17
1774801,14198950047,223.0,243.0,98.0,0,0.851,844.8,72.1,17
1774802,14198958043,212.0,236.0,92.0,0,0.837,844.8,72.1,17
1774803,14198966043,202.0,228.0,86.0,0,0.822,844.8,72.1,17
1774804,14198974043,197.0,220.0,78.0,0,0.836,844.8,72.1,17
1774805,14198982043,188.0,212.0,71.0,0,0.797,844.8,72.1,17
1774806,14198990043,183.0,205.0,64.0,0,0.772,844.8,72.1,17
1774807,14198998047,173.0,197.0,56.0,0,0.757,844.8,72.1,17
1774808,14199006043,167.0,190.0,49.0,0,0.711,844.8,72.1,17
1774809,14199014047,160.0,183.0,41.0,0,0.693,844.8,72.1,17
1774810,14199022043,156.0,176.0,34.0,0,0.644,844.8,72.1,17
1774811,14199030047,153.0,171.0,27.0,0,0.613,844.8,72.1,17
1774812,14199038047,148.0,165.0,20.0,0,0.581,844.8,72.1,17
1774813,14199046043,144.0,160.0,14.0,0,0.534,844.8,72.1,17
1774814,14199054043,142.0,156.0,9.0,0,0.489,844.8,72.1,17
1774815,14199062046,141.0,152.0,4.0,0,0.469,844.8,72.1,17
1774816,14199070046,140.0,149.0,-1.0,0,0.476,844.8,72.1,17
1774817,14199078043,139.0,147.0,-4.0,0,0.429,844.8,72.1,17
1774818,14199086043,135.0,144.0,-8.0,0,0.476,844.8,72.1,17
1774819,14199094043,136.0,142.0,-11.0,0,0.458,844.8,72.1,17
1774820,14199102043,136.0,141.0,-13.0,0,0.435,844.8,72.1,17
1774821,14199110046,133.0,139.0,-16.0,0,0.48,844.8,72.1,17
1774822,14199118046,131.0,137.0,-18.0,0,0.458,844.8,72.1,17
1774823,14199126045,127.0,134.0,-20.0,0,0.467,844.8,72.1,17
1774824,14199134047,127.0,133.0,-22.0,0,0.476,844.8,72.1,17
1774825,14199142045,125.0,131.0,-24.0,0,0.485,844.8,72.1,17
1774826,14199150043,122.0,129.0,-26.0,0,0.494,844.8,72.1,17
1774827,14199158043,120.0,127.0,-28.0,0,0.503,844.8,72.1,17
1774828,14199166047,119.0,125.0,-29.0,0,0.477,844.8,72.1,17
1774829,14199174047,116.0,123.0,-31.0,0,0.517,844.8,72.1,17
1774830,14199182046,115.0,121.0,-33.0,0,0.526,844.8,72.1,17
1774831,14199190045,112.0,119.0,-35.0,0,0.535,844.8,72.1,17
1774832,14199198046,109.0,116.0,-37.0,0,0.544,844.8,72.1,17
1774833,14199206043,105.0,114.0,-39.0,0,0.552,844.8,72.1,17
1774834,14199214043,107.0,112.0,-41.0,0,0.561,844.8,72.1,17
1774835,14199222047,99.0,109.0,-43.0,0,0.569,844.8,72.1,17
1774836,14199230046,102.0,107.0,-45.0,0,0.577,844.8,72.1,17
1774837,14199238044,100.0,105.0,-46.0,0,0.55,844.8,72.1,17
1774838,14199246043,101.0,104.0,-48.0,0,0.589,844.8,72.1,17
1774839,14199254046,97.0,103.0,-49.0,0,0.562,844.8,72.1,17
1774840,14199262043,96.0,101.0,-51.0,0,0.6,844.8,72.1,17
1774841,14199270043,93.0,99.0,-52.0,0,0.573,844.8,72.1,17
1774842,14199278043,92.0,97.0,-53.0,0,0.576,844.8,72.1,17
1774843,14199286047,94.0,97.0,-55.0,0,0.614,844.8,72.1,17
1774844,14199294044,92.0,95.0,-56.0,0,0.586,844.8,72.1,17
1774845,14199302043,92.0,95.0,-56.0,1,0.557,844.8,72.1,17
1774846,14199310045,95.0,95.0,-57.0,0,0.588,844.8,72.1,17
1774847,14199318043,95.0,95.0,-57.0,1,0.559,844.8,72.1,17
1774848,14199326043,100.0,96.0,-57.0,0,0.558,844.8,72.1,17
1774849,14199334047,100.0,97.0,-56.0,0,0.583,844.8,72.1,17
1774850,14199342043,98.0,97.0,-56.0,1,0.553,844.8,72.1,17
1774851,14199350047,103.0,99.0,-55.0,0,0.578,844.8,72.1,17
1774852,14199358043,101.0,99.0,-54.0,0,0.574,844.8,72.1,17
1774853,14199366043,99.0,99.0,-53.0,0,0.569,844.8,72.1,17
1774854,14199374043,102.0,100.0,-52.0,0,0.565,844.8,72.1,17
1774855,14199382047,104.0,101.0,-51.0,0,0.56,844.8,72.1,17
1774856,14199390047,100.0,101.0,-50.0,0,0.556,844.8,72.1,17
1774857,14199398043,105.0,102.0,-49.0,0,0.551,844.8,72.1,17
1774858,14199406043,107.0,103.0,-48.0,0,0.547,844.8,72.1,17
1774859,14199414044,109.0,104.0,-47.0,0,0.542,844.8,72.1,17
1774860,14199422044,108.0,105.0,-46.0,0,0.538,844.8,72.1,17
1774861,14199430046,108.0,106.0,-45.0,0,0.533,844.8,72.1,17
1774862,14199438045,114.0,108.0,-43.0,0,0.555,844.8,72.1,17
1774863,14199446043,113.0,109.0,-42.0,0,0.52,844.8,72.1,17
1774864,14199454043,116.0,111.0,-40.0,0,0.542,844.8,72.1,17
1774865,14199462044,116.0,112.0,-39.0,0,0.507,844.8,72.1,17
1774866,14199470043,114.0,113.0,-37.0,0,0.528,844.8,72.1,17
1774867,14199478043,116.0,113.0,-36.0,0,0.493,844.8,72.1,17
1774868,14199486043,115.0,114.0,-35.0,0,0.489,844.8,72.1,17
1774869,14199494043,118.0,115.0,-34.0,0,0.484,844.8,72.1,17
1774870,14199502043,118.0,116.0,-33.0,0,0.479,844.8,72.1,17
1774871,14199510043,118.0,116.0,-32.0,0,0.475,844.8,72.1,17
1774872,14199518047,121.0,117.0,-31.0,0,0.47,844.8,72.1,17
1774873,14199526043,118.0,117.0,-30.0,0,0.465,844.8,72.1,17
1774874,14199534044,121.0,118.0,-29.0,0,0.461,844.8,72.1,17
1774875,14199542046,120.0,119.0,-28.0,0,0.456,844.8,72.1,17
1774876,14199550043,120.0,119.0,-27.0,0,0.452,844.8,72.1,17
1774877,14199558047,121.0,120.0,-27.0,1,0.422,844.8,72.1,17
1774878,14199566047,120.0,120.0,-26.0,0,0.446,844.8,72.1,17
1774879,14199574046,124.0,121.0,-25.0,0,0.442,844.8,72.1,17
1774880,14199582044,124.0,121.0,-25.0,1,0.411,844.8,72.1,17
1774881,14199590043,125.0,122.0,-24.0,0,0.436,844.8,72.1,17
1774882,14199598045,124.0,123.0,-23.0,0,0.432,844.8,72.1,17
1774883,14199606045,130.0,125.0,-22.0,0,0.427,844.8,72.1,17
1774884,14199614043,136.0,127.0,-20.0,0,0.451,844.8,72.1,17
1774885,14199622043,140.0,130.0,-18.0,0,0.442,844.8,72.1,17
1774886,14199630047,150.0,135.0,-15.0,0,0.462,844.8,72.1,17
1774887,14199638043,158.0,141.0,-12.0,0,0.449,844.8,72.1,17
1774888,14199646047,168.0,147.0,-7.0,0,0.49,844.8,72.1,17
1774889,14199654045,180.0,155.0,-2.0,0,0.474,844.8,72.1,17
1774890,14199662043,192.0,164.0,5.0,0,0.547,844.8,72.1,17
1774891,14199670045,207.0,175.0,12.0,0,0.577,844.8,72.1,17
1774892,14199678043,217.0,185.0,20.0,0,0.63,844.8,72.1,17
1774893,14199686043,231.0,196.0,29.0,0,0.684,844.8,72.1,17
1774894,14199694043,243.0,207.0,39.0,0,0.739,844.8,72.1,17
1774895,14199702044,255.0,219.0,49.0,0,0.782,844.8,72.1,17
1774896,14199710046,267.0,231.0,59.0,0,0.819,844.8,72.1,17
1774897,14199718046,272.0,241.0,69.0,0,0.851,844.8,72.1,17
1774898,14199726046,279.0,250.0,79.0,0,0.877,844.8,72.1,17
1774899,14199734044,281.0,257.0,88.0,0,0.885,844.8,72.1,17
1774900,14199742045,287.0,265.0,96.0,0,0.884,844.8,72.1,17
1774901,14199750044,288.0,270.0,103.0,0,0.876,844.8,72.1,17
1774902,14199758046,284.0,274.0,109.0,0,0.862,844.8,72.1,17
1774903,14199766043,282.0,276.0,113.0,0,0.813,844.8,72.1,17
1774904,14199774046,278.0,276.0,116.0,0,0.785,844.8,72.1,17
1774905,14199782043,277.0,276.0,118.0,0,0.755,844.8,72.1,17
1774906,14199790045,272.0,275.0,119.0,0,0.724,844.8,72.1,17
1774907,14199798043,266.0,273.0,119.0,1,0.694,844.8,72.1,17
1774908,14199806047,260.0,270.0,118.0,0,0.72,844.8,72.1,17
1774909,14199814043,248.0,265.0,115.0,0,0.778,844.8,72.1,17
1774910,14199822043,244.0,260.0,112.0,0,0.773,844.8,72.1,17
1774911,14199830045,235.0,254.0,107.0,0,0.823,844.8,72.1,17
1774912,14199838047,225.0,247.0,102.0,0,0.813,844.8,72.1,17
1774913,14199846043,212.0,238.0,96.0,0,0.825,844.8,72.1,17
1774914,14199854046,206.0,230.0,89.0,0,0.829,844.8,72.1,17
1774915,14199862043,192.0,221.0,81.0,0,0.824,844.8,72.1,17
1774916,14199870043,186.0,213.0,73.0,0,0.799,844.8,72.1,17
1774917,14199878043,180.0,205.0,65.0,0,0.772,844.8,72.1,17
1774918,14199886047,173.0,197.0,57.0,0,0.742,844.8,72.1,17
1774919,14199894045,172.0,191.0,49.0,0,0.71,844.8,72.1,17
1774920,14199902045,163.0,184.0,42.0,0,0.663,844.8,72.1,17
1774921,14199910047,156.0,177.0,35.0,0,0.633,844.8,72.1,17
1774922,14199918052,155.0,172.0,28.0,0,0.603,844.8,72.1,17
1774923,14199926043,151.0,167.0,22.0,0,0.557,844.8,72.1,17
1774924,14199934044,148.0,162.0,16.0,0,0.533,844.8,72.1,17
1774925,14199942043,144.0,158.0,11.0,0,0.488,844.8,72.1,17
1774926,14199950047,141.0,154.0,6.0,0,0.469,844.8,72.1,17
1774927,14199958043,140.0,150.0,1.0,0,0.457,844.8,72.1,17
1774928,14199966044,138.0,147.0,-3.0,0,0.444,844.8,72.1,17
1774929,14199974047,139.0,145.0,-6.0,0,0.426,844.8,72.1,17
1774930,14199982043,127.0,141.0,-10.0,0,0.471,844.8,72.1,17
1774931,14199990046,130.0,138.0,-13.0,0,0.453,844.8,72.1,17
1774932,14199998043,127.0,136.0,-17.0,0,0.498,844.8,72.1,17
1774933,14200006047,124.0,133.0,-20.0,0,0.482,844.8,72.1,17
1774934,14200014047,124.0,131.0,-22.0,0,0.46,844.8,72.1,17
1774935,14200022043,118.0,128.0,-25.0,0,0.502,844.8,72.1,17
1774936,14200030043,119.0,125.0,-27.0,0,0.481,844.8,72.1,17
1774937,14200038043,117.0,123.0,-30.0,0,0.523,844.8,72.1,17
1774938,14200046043,110.0,120.0,-32.0,0,0.502,844.8,72.1,17
1774939,14200054043,111.0,118.0,-35.0,0,0.544,844.8,72.1,17
1774940,14200062043,108.0,116.0,-37.0,0,0.523,844.8,72.1,17
1774941,14200070047,104.0,113.0,-39.0,0,0.531,844.8,72.1,17
1774942,14200078047,105.0,111.0,-41.0,0,0.539,844.8,72.1,17
1774943,14200086043,101.0,108.0,-43.0,0,0.547,844.8,72.1,17
1774944,14200094043,100.0,106.0,-45.0,0,0.555,844.8,72.1,17
1774945,14200102043,99.0,105.0,-47.0,0,0.562,844.8,72.1,17
1774946,14200110043,100.0,104.0,-49.0,0,0.57,844.8,72.1,17
1774947,14200118043,97.0,102.0,-50.0,0,0.545,844.8,72.1,17
1774948,14200126044,95.0,100.0,-52.0,0,0.581,844.8,72.1,17
1774949,14200134043,97.0,99.0,-53.0,0,0.555,844.8,72.1,17
1774950,14200142044,96.0,99.0,-54.0,0,0.559,844.8,72.1,17
1774951,14200150043,99.0,99.0,-54.0,1,0.531,844.8,72.1,17
1774952,14200158044,99.0,99.0,-54.0,0,0.531,844.8,72.1,17
1774953,14200166046,100.0,99.0,-54.0,0,0.531,844.8,72.1,17
1774954,14200174043,102.0,100.0,-54.0,0,0.53,844.8,72.1,17
1774955,14200182047,100.0,100.0,-54.0,0,0.53,844.8,72.1,17
1774956,14200190044,105.0,101.0,-53.0,0,0.553,844.8,72.1,17
1774957,14200198045,103.0,102.0,-52.0,0,0.549,844.8,72.1,17
1774958,14200206043,103.0,102.0,-52.0,1,0.522,844.8,72.1,17
1774959,14200214047,102.0,102.0,-51.0,0,0.545,844.8,72.1,17
1774960,14200222043,103.0,102.0,-50.0,0,0.541,844.8,72.1,17
1774961,14200230047,105.0,103.0,-50.0,1,0.513,844.8,72.1,17
1774962,14200238043,107.0,104.0,-49.0,0,0.536,844.8,72.1,17
1774963,14200246043,107.0,105.0,-48.0,0,0.532,844.8,72.1,17
1774964,14200254043,107.0,105.0,-47.0,0,0.528,844.8,72.1,17
1774965,14200262046,104.0,105.0,-46.0,0,0.523,844.8,72.1,17
1774966,14200270044,105.0,105.0,-46.0,1,0.496,844.8,72.1,17
1774967,14200278043,104.0,105.0,-45.0,0,0.519,844.8,72.1,17
1774968,14200286045,108.0,106.0,-45.0,1,0.491,844.8,72.1,17
1774969,14200294043,109.0,106.0,-44.0,0,0.514,844.8,72.1,17
1774970,14200302043,108.0,107.0,-43.0,0,0.51,844.8,72.1,17
1774971,14200310043,108.0,107.0,-43.0,1,0.483,844.8,72.1,17
1774972,14200318043,109.0,108.0,-42.0,0,0.505,844.8,72.1,17
1774973,14200326045,107.0,107.0,-41.0,0,0.501,844.8,72.1,17
1774974,14200334046,113.0,109.0,-41.0,1,0.474,844.8,72.1,17
1774975,14200342043,111.0,109.0,-40.0,0,0.496,844.8,72.1,17
1774976,14200350047,111.0,110.0,-39.0,0,0.492,844.8,72.1,17
1774977,14200358043,113.0,111.0,-38.0,0,0.488,844.8,72.1,17
1774978,14200366045,110.0,110.0,-37.0,0,0.484,844.8,72.1,17
1774979,14200374043,115.0,112.0,-37.0,1,0.456,844.8,72.1,17
1774980,14200382046,115.0,112.0,-36.0,0,0.479,844.8,72.1,17
1774981,14200390045,115.0,113.0,-35.0,0,0.475,844.8,72.1,17
1774982,14200398044,116.0,114.0,-34.0,0,0.47,844.8,72.1,17
1774983,14200406043,116.0,114.0,-33.0,0,0.466,844.8,72.1,17
1774984,14200414043,117.0,115.0,-32.0,0,0.462,844.8,72.1,17
1774985,14200422046,117.0,115.0,-31.0,0,0.457,844.8,72.1,17
1774986,14200430044,121.0,117.0,-30.0,0,0.453,844.8,72.1,17
1774987,14200438045,123.0,118.0,-29.0,0,0.449,844.8,72.1,17
1774988,14200446047,130.0,121.0,-27.0,0,0.469,844.8,72.1,17
1774989,14200454045,136.0,125.0,-25.0,0,0.461,844.8,72.1,17
1774990,14200462043,145.0,130.0,-22.0,0,0.479,844.8,72.1,17
1774991,14200470043,157.0,136.0,-18.0,0,0.492,844.8,72.1,17
1774992,14200478043,171.0,145.0,-13.0,0,0.5,844.8,72.1,17
1774993,14200486043,183.0,154.0,-6.0,0,0.52,844.8,72.1,17
1774994,14200494045,197.0,164.0,1.0,0,0.507,844.8,72.1,17
1774995,14200502044,208.0,175.0,10.0,0,0.572,844.8,72.1,17
1774996,14200510047,219.0,186.0,19.0,0,0.607,844.8,72.1,17
1774997,14200518047,230.0,196.0,28.0,0,0.643,844.8,72.1,17
1774998,14200526043,239.0,207.0,38.0,0,0.695,844.8,72.1,17
1774999,14200534043,253.0,218.0,47.0,0,0.719,844.8,72.1,17
1775000,14200542043,259.0,228.0,57.0,0,0.768,844.8,72.1,17
1775001,14200550043,264.0,237.0,66.0,0,0.787,844.8,72.1,17
1775002,14200558043,271.0,245.0,75.0,0,0.815,844.8,72.1,17
1775003,14200566043,272.0,252.0,83.0,0,0.821,844.8,72.1,17
1775004,14200574046,275.0,257.0,90.0,0,0.819,844.8,72.1,17
1775005,14200582045,272.0,261.0,96.0,0,0.81,844.8,72.1,17
1775006,14200590043,275.0,264.0,101.0,0,0.795,844.8,72.1,17
1775007,14200598043,271.0,266.0,105.0,0,0.775,844.8,72.1,17
1775008,14200606046,267.0,266.0,108.0,0,0.752,844.8,72.1,17
1775009,14200614043,260.0,265.0,109.0,0,0.696,844.8,72.1,17
1775010,14200622043,251.0,261.0,109.0,1,0.669,844.8,72.1,17
1775011,14200630043,244.0,257.0,107.0,0,0.72,844.8,72.1,17
1775012,14200638044,236.0,252.0,104.0,0,0.743,844.8,72.1,17
1775013,14200646043,229.0,246.0,100.0,0,0.764,844.8,72.1,17
1775014,14200654043,222.0,241.0,96.0,0,0.755,844.8,72.1,17
1775015,14200662043,211.0,233.0,90.0,0,0.793,844.8,72.1,17
1775016,14200670043,204.0,226.0,84.0,0,0.778,844.8,72.1,17
1775017,14200678043,197.0,219.0,78.0,0,0.761,844.8,72.1,17
1775018,14200686043,184.0,211.0,71.0,0,0.761,844.8,72.1,17
1775019,14200694047,180.0,203.0,63.0,0,0.752,844.8,72.1,17
1775020,14200702043,170.0,195.0,56.0,0,0.709,844.8,72.1,17
1775021,14200710043,164.0,188.0,48.0,0,0.696,844.8,72.1,17
1775022,14200718043,157.0,180.0,41.0,0,0.651,844.8,72.1,17
1775023,14200726047,153.0,174.0,33.0,0,0.636,844.8,72.1,17
1775024,14200734047,151.0,168.0,26.0,0,0.59,844.8,72.1,17
1775025,14200742043,142.0,162.0,20.0,0,0.545,844.8,72.1,17
1775026,14200750049,140.0,157.0,13.0,0,0.539,844.8,72.1,17
1775027,14200758043,143.0,153.0,8.0,0,0.475,844.8,72.1,17
1775028,14200766044,135.0,149.0,3.0,0,0.457,844.8,72.1,17
1775029,14200774043,135.0,145.0,-2.0,0,0.455,844.8,72.1,17
1775030,14200782043,131.0,142.0,-6.0,0,0.443,844.8,72.1,17
1775031,14200790043,132.0,140.0,-10.0,0,0.457,844.8,72.1,17
1775032,14200798043,132.0,138.0,-13.0,0,0.44,844.8,72.1,17
1775033,14200806045,127.0,135.0,-16.0,0,0.451,844.8,72.1,17
1775034,14200814043,130.0,134.0,-18.0,0,0.431,844.8,72.1,17
1775035,14200822043,125.0,132.0,-20.0,0,0.438,844.8,72.1,17
1775036,14200830047,124.0,130.0,-22.0,0,0.446,844.8,72.1,17
1775037,14200838043,120.0,127.0,-25.0,0,0.486,844.8,72.1,17
1775038,14200846043,116.0,125.0,-27.0,0,0.465,844.8,72.1,17
1775039,14200854043,114.0,122.0,-29.0,0,0.473,844.8,72.1,17
1775040,14200862047,112.0,120.0,-31.0,0,0.481,844.8,72.1,17
1775041,14200870046,109.0,117.0,-34.0,0,0.521,844.8,72.1,17
1775042,14200878044,108.0,115.0,-36.0,0,0.5,844.8,72.1,17
1775043,14200886046,100.0,111.0,-38.0,0,0.508,844.8,72.1,17
1775044,14200894043,100.0,109.0,-41.0,0,0.548,844.8,72.1,17
1775045,14200902046,99.0,106.0,-43.0,0,0.527,844.8,72.1,17
1775046,14200910044,96.0,104.0,-45.0,0,0.535,844.8,72.1,17
1775047,14200918043,93.0,101.0,-48.0,0,0.574,844.8,72.1,17
1775048,14200926043,88.0,98.0,-50.0,0,0.553,844.8,72.1,17
1775049,14200934043,88.0,96.0,-52.0,0,0.56,844.8,72.1,17
1775050,14200942043,87.0,93.0,-55.0,0,0.599,844.8,72.1,17
1775051,14200950047,85.0,91.0,-57.0,0,0.578,844.8,72.1,17
1775052,14200958043,87.0,90.0,-58.0,0,0.554,844.8,72.1,17
1775053,14200966044,83.0,89.0,-60.0,0,0.588,844.8,72.1,17
1775054,14200974044,83.0,87.0,-61.0,0,0.563,844.8,72.1,17
1775055,14200982046,85.0,87.0,-62.0,0,0.566,844.8,72.1,17
1775056,14200990045,84.0,86.0,-63.0,0,0.569,844.8,72.1,17
1775057,14200998043,82.0,85.0,-64.0,0,0.572,844.8,72.1,17
1775058,14201006045,87.0,86.0,-64.0,1,0.546,844.8,72.1,17
1775059,14201014043,86.0,86.0,-64.0,0,0.546,844.8,72.1,17
1775060,14201022043,89.0,86.0,-63.0,0,0.567,844.8,72.1,17
1775061,14201030043,94.0,88.0,-63.0,1,0.541,844.8,72.1,17
1775062,14201038046,96.0,90.0,-61.0,0,0.587,844.8,72.1,17
1775063,14201046043,92.0,91.0,-60.0,0,0.556,844.8,72.1,17
1775064,14201054043,98.0,92.0,-59.0,0,0.552,844.8,72.1,17
1775065,14201062043,97.0,94.0,-57.0,0,0.572,844.8,72.1,17
1775066,14201070043,100.0,95.0,-56.0,0,0.541,844.8,72.1,17
1775067,14201078043,98.0,96.0,-54.0,0,0.561,844.8,72.1,17
1775068,14201086043,100.0,97.0,-53.0,0,0.529,844.8,72.1,17
1775069,14201094043,101.0,98.0,-51.0,0,0.549,844.8,72.1,17
1775070,14201102043,104.0,99.0,-50.0,0,0.518,844.8,72.1,17
1775071,14201110043,107.0,101.0,-48.0,0,0.537,844.8,72.1,17
1775072,14201118047,108.0,103.0,-47.0,0,0.506,844.8,72.1,17
1775073,14201126044,110.0,105.0,-45.0,0,0.526,844.8,72.1,17
1775074,14201134043,109.0,106.0,-43.0,0,0.518,844.8,72.1,17
1775075,14201142043,115.0,108.0,-41.0,0,0.51,844.8,72.1,17
1775076,14201150043,115.0,110.0,-39.0,0,0.502,844.8,72.1,17
1775077,14201158043,111.0,110.0,-38.0,0,0.471,844.8,72.1,17
1775078,14201166043,115.0,111.0,-36.0,0,0.491,844.8,72.1,17
1775079,14201174046,117.0,113.0,-35.0,0,0.459,844.8,72.1,17
1775080,14201182042,115.0,113.0,-33.0,0,0.479,844.8,72.1,17
1775081,14201190046,116.0,114.0,-32.0,0,0.448,844.8,72.1,17
1775082,14201198047,116.0,114.0,-31.0,0,0.444,844.8,72.1,17
1775083,14201206043,120.0,116.0,-30.0,0,0.44,844.8,72.1,17
1775084,14201214043,123.0,118.0,-28.0,0,0.46,844.8,72.1,17
1775085,14201222043,127.0,120.0,-27.0,0,0.429,844.8,72.1,17
1775086,14201230045,136.0,124.0,-24.0,0,0.472,844.8,72.1,17
1775087,14201238043,138.0,127.0,-22.0,0,0.437,844.8,72.1,17
1775088,14201246045,149.0,132.0,-18.0,0,0.477,844.8,72.1,17
1775089,14201254043,159.0,139.0,-14.0,0,0.463,844.8,72.1,17
1775090,14201262044,169.0,146.0,-9.0,0,0.471,844.8,72.1,17
1775091,14201270043,183.0,155.0,-2.0,0,0.492,844.8,72.1,17
1775092,14201278044,191.0,164.0,4.0,0,0.486,844.8,72.1,17
1775093,14201286043,208.0,175.0,12.0,0,0.552,844.8,72.1,17
1775094,14201294044,221.0,186.0,21.0,0,0.599,844.8,72.1,17
1775095,14201302043,229.0,196.0,30.0,0,0.632,844.8,72.1,17
1775096,14201310043,241.0,207.0,40.0,0,0.682,844.8,72.1,17
1775097,14201318043,252.0,218.0,50.0,0,0.717,844.8,72.1,17
1775098,14201326044,258.0,228.0,59.0,0,0.735,844.8,72.1,17
1775099,14201334043,269.0,238.0,69.0,0,0.779,844.8,72.1,17
1775100,14201342043,274.0,247.0,78.0,0,0.791,844.8,72.1,17
1775101,14201350043,281.0,255.0,87.0,0,0.813,844.8,72.1,17
1775102,14201358044,281.0,261.0,94.0,0,0.795,844.8,72.1,17
1775103,14201366047,279.0,266.0,101.0,0,0.808,844.8,72.1,17
1775104,14201374043,278.0,269.0,106.0,0,0.773,844.8,72.1,17
1775105,14201382043,274.0,270.0,110.0,0,0.754,844.8,72.1,17
1775106,14201390043,270.0,270.0,113.0,0,0.733,844.8,72.1,17
1775107,14201398043,270.0,270.0,115.0,0,0.708,844.8,72.1,17
1775108,14201406043,254.0,266.0,114.0,1,0.68,844.8,72.1,17
1775109,14201414043,258.0,264.0,114.0,1,0.654,844.8,72.1,17
1775110,14201422043,246.0,260.0,111.0,0,0.728,844.8,72.1,17
1775111,14201430043,240.0,255.0,108.0,0,0.723,844.8,72.1,17
1775112,14201438046,233.0,250.0,105.0,0,0.717,844.8,72.1,17
1775113,14201446046,226.0,244.0,100.0,0,0.76,844.8,72.1,17
1775114,14201454046,209.0,235.0,94.0,0,0.771,844.8,72.1,17
1775115,14201462043,200.0,227.0,87.0,0,0.775,844.8,72.1,17
1775116,14201470043,192.0,218.0,80.0,0,0.757,844.8,72.1,17
1775117,14201478047,183.0,210.0,72.0,0,0.753,844.8,72.1,17
1775118,14201486043,176.0,202.0,64.0,0,0.728,844.8,72.1,17
1775119,14201494043,165.0,193.0,56.0,0,0.701,844.8,72.1,17
1775120,14201502043,159.0,185.0,48.0,0,0.674,844.8,72.1,17
1775121,14201510043,153.0,177.0,39.0,0,0.657,844.8,72.1,17
1775122,14201518047,144.0,169.0,31.0,0,0.612,844.8,72.1,17
1775123,14201526047,144.0,163.0,24.0,0,0.568,844.8,72.1,17
1775124,14201534046,138.0,157.0,17.0,0,0.543,844.8,72.1,17
1775125,14201542043,127.0,150.0,9.0,0,0.534,844.8,72.1,17
1775126,14201550046,133.0,146.0,3.0,0,0.475,844.8,72.1,17
1775127,14201558045,126.0,141.0,-3.0,0,0.472,844.8,72.1,17
1775128,14201566043,124.0,137.0,-8.0,0,0.466,844.8,72.1,17
1775129,14201574043,124.0,134.0,-12.0,0,0.454,844.8,72.1,17
1775130,14201582043,124.0,131.0,-16.0,0,0.468,844.8,72.1,17
1775131,14201590047,122.0,129.0,-20.0,0,0.483,844.8,72.1,17
1775132,14201598047,120.0,127.0,-23.0,0,0.467,844.8,72.1,17
1775133,14201606044,120.0,125.0,-25.0,0,0.447,844.8,72.1,17
1775134,14201614047,121.0,124.0,-27.0,0,0.454,844.8,72.1,17
1775135,14201622043,116.0,122.0,-29.0,0,0.462,844.8,72.1,17
1775136,14201630043,118.0,121.0,-31.0,0,0.469,844.8,72.1,17
1775137,14201638047,112.0,119.0,-33.0,0,0.476,844.8,72.1,17
1775138,14201646044,116.0,118.0,-34.0,0,0.453,844.8,72.1,17
1775139,14201654043,114.0,117.0,-35.0,0,0.457,844.8,72.1,17
1775140,14201662047,113.0,116.0,-36.0,0,0.46,844.8,72.1,17
1775141,14201670046,113.0,115.0,-37.0,0,0.464,844.8,72.1,17
1775142,14201678043,113.0,115.0,-38.0,0,0.467,844.8,72.1,17
1775143,14201686043,108.0,113.0,-39.0,0,0.471,844.8,72.1,17
1775144,14201694043,109.0,112.0,-40.0,0,0.474,844.8,72.1,17
1775145,14201702043,108.0,111.0,-40.0,1,0.449,844.8,72.1,17
1775146,14201710046,110.0,111.0,-41.0,0,0.477,844.8,72.1,17
1775147,14201718047,107.0,110.0,-42.0,0,0.481,844.8,72.1,17
1775148,14201726043,105.0,109.0,-42.0,1,0.455,844.8,72.1,17
1775149,14201734043,104.0,108.0,-43.0,0,0.484,844.8,72.1,17
1775150,14201742045,103.0,106.0,-44.0,0,0.488,844.8,72.1,17
1775151,14201750043,104.0,106.0,-44.0,1,0.462,844.8,72.1,17
1775152,14201758043,102.0,105.0,-45.0,0,0.491,844.8,72.1,17
1775153,14201766046,101.0,104.0,-46.0,0,0.495,844.8,72.1,17
1775154,14201774043,101.0,103.0,-46.0,1,0.47,844.8,72.1,17
1775155,14201782043,101.0,103.0,-47.0,0,0.499,844.8,72.1,17
1775156,14201790044,101.0,102.0,-47.0,1,0.473,844.8,72.1,17
1775157,14201798045,101.0,102.0,-47.0,0,0.473,844.8,72.1,17
1775158,14201806043,102.0,102.0,-47.0,0,0.473,844.8,72.1,17
1775159,14201814045,97.0,101.0,-48.0,0,0.502,844.8,72.1,17
1775160,14201822047,101.0,101.0,-48.0,1,0.477,844.8,72.1,17
1775161,14201830047,104.0,102.0,-48.0,0,0.477,844.8,72.1,17
1775162,14201838047,104.0,102.0,-47.0,0,0.499,844.8,72.1,17
1775163,14201846043,100.0,102.0,-47.0,1,0.473,844.8,72.1,17
1775164,14201854043,107.0,103.0,-46.0,0,0.495,844.8,72.1,17
1775165,14201862043,108.0,104.0,-46.0,1,0.47,844.8,72.1,17
1775166,14201870043,109.0,105.0,-45.0,0,0.492,844.8,72.1,17
1775167,14201878043,109.0,106.0,-43.0,0,0.511,844.8,72.1,17
1775168,14201886043,109.0,107.0,-42.0,0,0.481,844.8,72.1,17
1775169,14201894046,114.0,109.0,-41.0,0,0.477,844.8,72.1,17
1775170,14201902043,110.0,109.0,-40.0,0,0.474,844.8,72.1,17
1775171,14201910046,115.0,110.0,-39.0,0,0.47,844.8,72.1,17
1775172,14201918044,109.0,110.0,-38.0,0,0.467,844.8,72.1,17
1775173,14201926043,112.0,111.0,-37.0,0,0.463,844.8,72.1,17
1775174,14201934043,116.0,112.0,-36.0,0,0.46,844.8,72.1,17
1775175,14201942045,114.0,112.0,-35.0,0,0.456,844.8,72.1,17
1775176,14201950044,117.0,114.0,-34.0,0,0.453,844.8,72.1,17
1775177,14201958047,121.0,115.0,-33.0,0,0.449,844.8,72.1,17
1775178,14201966044,133.0,120.0,-30.0,0,0.492,844.8,72.1,17
1775179,14201974043,143.0,125.0,-27.0,0,0.481,844.8,72.1,17
1775180,14201982043,148.0,131.0,-23.0,0,0.493,844.8,72.1,17
1775181,14201990044,165.0,139.0,-18.0,0,0.5,844.8,72.1,17
1775182,14201998044,176.0,148.0,-12.0,0,0.502,844.8,72.1,17
1775183,14202006043,186.0,157.0,-5.0,0,0.499,844.8,72.1,17
1775184,14202014043,197.0,167.0,3.0,0,0.521,844.8,72.1,17
1775185,14202022046,211.0,178.0,12.0,0,0.567,844.8,72.1,17
1775186,14202030044,225.0,189.0,21.0,0,0.6,844.8,72.1,17
1775187,14202038044,230.0,199.0,30.0,0,0.633,844.8,72.1,17
1775188,14202046047,237.0,208.0,39.0,0,0.666,844.8,72.1,17
1775189,14202054043,247.0,218.0,49.0,0,0.715,844.8,72.1,17
1775190,14202062047,250.0,225.0,57.0,0,0.714,844.8,72.1,17
1775191,14202070043,259.0,234.0,65.0,0,0.739,844.8,72.1,17
1775192,14202078043,266.0,241.0,73.0,0,0.762,844.8,72.1,17
1775193,14202086043,266.0,247.0,81.0,0,0.783,844.8,72.1,17
1775194,14202094043,265.0,252.0,87.0,0,0.757,844.8,72.1,17
1775195,14202102043,264.0,255.0,92.0,0,0.745,844.8,72.1,17
1775196,14202110047,264.0,257.0,96.0,0,0.727,844.8,72.1,17
1775197,14202118043,252.0,256.0,98.0,0,0.678,844.8,72.1,17
1775198,14202126043,252.0,255.0,100.0,0,0.681,844.8,72.1,17
1775199,14202134045,244.0,252.0,100.0,1,0.631,844.8,72.1,17
1775200,14202142043,235.0,248.0,98.0,0,0.673,844.8,72.1,17
1775201,14202150044,233.0,244.0,96.0,0,0.667,844.8,72.1,17
1775202,14202158043,221.0,239.0,93.0,0,0.684,844.8,72.1,17
1775203,14202166043,213.0,232.0,88.0,0,0.72,844.8,72.1,17
1775204,14202174043,208.0,227.0,83.0,0,0.704,844.8,72.1,17
1775205,14202182043,194.0,219.0,77.0,0,0.708,844.8,72.1,17
1775206,14202190043,185.0,210.0,71.0,0,0.688,844.8,72.1,17
1775207,14202198047,176.0,202.0,64.0,0,0.684,844.8,72.1,17
1775208,14202206044,165.0,193.0,56.0,0,0.673,844.8,72.1,17
1775209,14202214043,164.0,186.0,48.0,0,0.643,844.8,72.1,17
1775210,14202222043,156.0,179.0,41.0,0,0.598,844.8,72.1,17
1775211,14202230043,151.0,172.0,33.0,0,0.587,844.8,72.1,17
1775212,14202238046,146.0,166.0,26.0,0,0.543,844.8,72.1,17
1775213,14202246047,141.0,160.0,19.0,0,0.519,844.8,72.1,17
1775214,14202254045,138.0,154.0,13.0,0,0.478,844.8,72.1,17
1775215,14202262043,133.0,149.0,7.0,0,0.46,844.8,72.1,17
1775216,14202270043,138.0,147.0,2.0,0,0.448,844.8,72.1,17
1775217,14202278047,136.0,144.0,-2.0,0,0.436,844.8,72.1,17
1775218,14202286044,133.0,141.0,-6.0,0,0.45,844.8,72.1,17
1775219,14202294043,131.0,139.0,-10.0,0,0.463,844.8,72.1,17
1775220,14202302045,127.0,136.0,-13.0,0,0.448,844.8,72.1,17
1775221,14202310047,125.0,133.0,-16.0,0,0.458,844.8,72.1,17
1775222,14202318043,125.0,131.0,-19.0,0,0.468,844.8,72.1,17
1775223,14202326043,126.0,130.0,-21.0,0,0.448,844.8,72.1,17
1775224,14202334043,124.0,129.0,-23.0,0,0.455,844.8,72.1,17
1775225,14202342043,125.0,128.0,-24.0,0,0.432,844.8,72.1,17
1775226,14202350046,127.0,128.0,-25.0,0,0.435,844.8,72.1,17
1775227,14202358043,123.0,126.0,-26.0,0,0.437,844.8,72.1,17
1775228,14202366046,121.0,125.0,-28.0,0,0.47,844.8,72.1,17
1775229,14202374043,124.0,125.0,-28.0,1,0.419,844.8,72.1,17
1775230,14202382043,118.0,123.0,-29.0,0,0.446,844.8,72.1,17
1775231,14202390043,117.0,122.0,-30.0,0,0.449,844.8,72.1,17
1775232,14202398044,114.0,120.0,-32.0,0,0.482,844.8,72.1,17
1775233,14202406045,114.0,118.0,-33.0,0,0.459,844.8,72.1,17
1775234,14202414043,112.0,117.0,-34.0,0,0.462,844.8,72.1,17
1775235,14202422047,108.0,115.0,-35.0,0,0.465,844.8,72.1,17
1775236,14202430043,112.0,114.0,-37.0,0,0.498,844.8,72.1,17
1775237,14202438043,109.0,113.0,-38.0,0,0.475,844.8,72.1,17
1775238,14202446044,108.0,112.0,-39.0,0,0.479,844.8,72.1,17
1775239,14202454043,109.0,111.0,-40.0,0,0.482,844.8,72.1,17
1775240,14202462043,109.0,111.0,-40.0,1,0.456,844.8,72.1,17
1775241,14202470043,108.0,110.0,-41.0,0,0.484,844.8,72.1,17
1775242,14202478046,105.0,109.0,-41.0,1,0.458,844.8,72.1,17
1775243,14202486043,100.0,107.0,-42.0,0,0.486,844.8,72.1,17
1775244,14202494045,101.0,105.0,-43.0,0,0.49,844.8,72.1,17
1775245,14202502045,102.0,104.0,-44.0,0,0.493,844.8,72.1,17
1775246,14202510043,106.0,105.0,-45.0,0,0.496,844.8,72.1,17
1775247,14202518044,100.0,104.0,-45.0,1,0.47,844.8,72.1,17
1775248,14202526047,102.0,103.0,-46.0,0,0.499,844.8,72.1,17
1775249,14202534047,100.0,102.0,-46.0,1,0.472,844.8,72.1,17
1775250,14202542046,100.0,102.0,-46.0,0,0.471,844.8,72.1,17
1775251,14202550043,102.0,102.0,-47.0,0,0.501,844.8,72.1,17
1775252,14202558043,104.0,102.0,-47.0,1,0.474,844.8,72.1,17
1775253,14202566043,101.0,102.0,-46.0,0,0.496,844.8,72.1,17
1775254,14202574044,105.0,103.0,-46.0,1,0.469,844.8,72.1,17
1775255,14202582046,108.0,104.0,-45.0,0,0.491,844.8,72.1,17
1775256,14202590043,109.0,105.0,-45.0,1,0.465,844.8,72.1,17
1775257,14202598043,117.0,108.0,-43.0,0,0.51,844.8,72.1,17
1775258,14202606047,122.0,111.0,-41.0,0,0.502,844.8,72.1,17
1775259,14202614043,133.0,117.0,-38.0,0,0.518,844.8,72.1,17
1775260,14202622043,144.0,123.0,-34.0,0,0.529,844.8,72.1,17
1775261,14202630043,156.0,131.0,-28.0,0,0.555,844.8,72.1,17
1775262,14202638047,164.0,139.0,-22.0,0,0.531,844.8,72.1,17
1775263,14202646043,175.0,148.0,-16.0,0,0.509,844.8,72.1,17
1775264,14202654043,197.0,160.0,-7.0,0,0.53,844.8,72.1,17
1775265,14202662043,206.0,171.0,2.0,0,0.548,844.8,72.1,17
1775266,14202670043,219.0,183.0,11.0,0,0.581,844.8,72.1,17
1775267,14202678043,232.0,195.0,22.0,0,0.645,844.8,72.1,17
1775268,14202686045,242.0,206.0,32.0,0,0.674,844.8,72.1,17
1775269,14202694047,252.0,217.0,43.0,0,0.726,844.8,72.1,17
1775270,14202702045,260.0,228.0,53.0,0,0.751,844.8,72.1,17
1775271,14202710045,267.0,237.0,63.0,0,0.783,844.8,72.1,17
1775272,14202718043,269.0,245.0,72.0,0,0.795,844.8,72.1,17
1775273,14202726043,272.0,251.0,80.0,0,0.799,844.8,72.1,17
1775274,14202734043,268.0,255.0,87.0,0,0.796,844.8,72.1,17
1775275,14202742043,268.0,258.0,93.0,0,0.787,844.8,72.1,17
1775276,14202750047,267.0,261.0,97.0,0,0.745,844.8,72.1,17
1775277,14202758044,260.0,260.0,100.0,0,0.723,844.8,72.1,17
1775278,14202766043,253.0,259.0,101.0,0,0.673,844.8,72.1,17
1775279,14202774044,250.0,257.0,101.0,1,0.647,844.8,72.1,17
1775280,14202782043,241.0,253.0,100.0,0,0.667,844.8,72.1,17
1775281,14202790043,232.0,248.0,98.0,0,0.687,844.8,72.1,17
1775282,14202798043,216.0,240.0,94.0,0,0.728,844.8,72.1,17
1775283,14202806043,212.0,233.0,89.0,0,0.739,844.8,72.1,17
1775284,14202814046,202.0,226.0,83.0,0,0.745,844.8,72.1,17
1775285,14202822043,193.0,218.0,76.0,0,0.744,844.8,72.1,17
1775286,14202830046,184.0,210.0,69.0,0,0.72,844.8,72.1,17
1775287,14202838043,172.0,200.0,61.0,0,0.709,844.8,72.1,17
1775288,14202846043,164.0,192.0,53.0,0,0.679,844.8,72.1,17
1775289,14202854043,157.0,183.0,45.0,0,0.647,844.8,72.1,17
1775290,14202862043,152.0,176.0,37.0,0,0.614,844.8,72.1,17
1775291,14202870043,149.0,169.0,29.0,0,0.582,844.8,72.1,17
1775292,14202878043,140.0,162.0,22.0,0,0.536,844.8,72.1,17
1775293,14202886043,136.0,156.0,15.0,0,0.51,844.8,72.1,17
1775294,14202894043,132.0,150.0,8.0,0,0.484,844.8,72.1,17
1775295,14202902043,130.0,145.0,2.0,0,0.464,814.4,71.8,1
1775296,14202910043,131.0,142.0,-4.0,0,0.485,814.4,71.8,1
1775297,14202918045,127.0,138.0,-9.0,0,0.481,814.4,71.8,1
1775298,14202926043,126.0,135.0,-13.0,0,0.473,814.4,71.8,1
1775299,14202934043,127.0,133.0,-16.0,0,0.46,814.4,71.8,1
1775300,14202942047,126.0,131.0,-19.0,0,0.472,814.4,71.8,1
1775301,14202950043,125.0,130.0,-22.0,0,0.483,814.4,71.8,1
1775302,14202958043,125.0,129.0,-24.0,0,0.467,814.4,71.8,1
1775303,14202966043,124.0,128.0,-26.0,0,0.475,814.4,71.8,1
1775304,14202974046,123.0,126.0,-27.0,0,0.455,814.4,71.8,1
1775305,14202982043,121.0,125.0,-29.0,0,0.487,814.4,71.8,1
1775306,14202990045,117.0,123.0,-30.0,0,0.467,814.4,71.8,1
1775307,14202998045,112.0,120.0,-32.0,0,0.498,814.4,71.8,1
1775308,14203006046,111.0,118.0,-34.0,0,0.506,814.4,71.8,1
1775309,14203014043,116.0,118.0,-35.0,0,0.486,814.4,71.8,1
1775310,14203022047,108.0,115.0,-37.0,0,0.517,814.4,71.8,1
1775311,14203030046,108.0,114.0,-38.0,0,0.497,814.4,71.8,1
1775312,14203038043,104.0,111.0,-40.0,0,0.528,814.4,71.8,1
1775313,14203046047,104.0,109.0,-42.0,0,0.535,814.4,71.8,1
1775314,14203054046,101.0,107.0,-43.0,0,0.515,814.4,71.8,1
1775315,14203062043,100.0,106.0,-45.0,0,0.545,814.4,71.8,1
1775316,14203070045,96.0,103.0,-47.0,0,0.552,814.4,71.8,1
1775317,14203078043,99.0,102.0,-48.0,0,0.531,814.4,71.8,1
1775318,14203086044,96.0,101.0,-49.0,0,0.533,814.4,71.8,1
1775319,14203094043,97.0,100.0,-50.0,0,0.536,814.4,71.8,1
1775320,14203102043,92.0,98.0,-52.0,0,0.567,836.0,71.8,1
1775321,14203110043,94.0,97.0,-53.0,0,0.544,836.0,71.8,1
1775322,14203118043,92.0,96.0,-54.0,0,0.547,836.0,71.8,1
1775323,14203126043,92.0,95.0,-55.0,0,0.549,836.0,71.8,1
1775324,14203134044,93.0,94.0,-55.0,1,0.524,836.0,71.8,1
1775325,14203142043,90.0,93.0,-56.0,0,0.551,836.0,71.8,1
1775326,14203150043,95.0,94.0,-56.0,1,0.526,836.0,71.8,1
1775327,14203158043,97.0,95.0,-56.0,0,0.525,836.0,71.8,1
1775328,14203166043,92.0,94.0,-56.0,0,0.524,836.0,71.8,1
1775329,14203174044,96.0,94.0,-56.0,0,0.523,836.0,71.8,1
1775330,14203182043,94.0,94.0,-55.0,0,0.543,836.0,71.8,1
1775331,14203190043,100.0,96.0,-55.0,1,0.517,836.0,71.8,1
1775332,14203198043,104.0,98.0,-53.0,0,0.559,836.0,71.8,1
1775333,14203206044,104.0,99.0,-52.0,0,0.529,836.0,71.8,1
1775334,14203214045,113.0,103.0,-50.0,0,0.546,836.0,71.8,1
1775335,14203222043,124.0,108.0,-47.0,0,0.56,836.0,71.8,1
1775336,14203230043,136.0,115.0,-43.0,0,0.569,836.0,71.8,1
1775337,14203238043,146.0,122.0,-38.0,0,0.573,836.0,71.8,1
1775338,14203246047,164.0,132.0,-31.0,0,0.587,836.0,71.8,1
1775339,14203254045,176.0,143.0,-23.0,0,0.572,836.0,71.8,1
1775340,14203262044,191.0,155.0,-15.0,0,0.54,836.0,71.8,1
1775341,14203270043,212.0,169.0,-4.0,0,0.543,836.0,71.8,1
1775342,14203278044,222.0,181.0,7.0,0,0.584,836.0,71.8,1
1775343,14203286043,239.0,195.0,18.0,0,0.628,836.0,71.8,1
1775344,14203294044,250.0,209.0,30.0,0,0.686,836.0,71.8,1
1775345,14203302047,259.0,221.0,42.0,0,0.734,836.0,71.8,1
1775346,14203310044,273.0,233.0,54.0,0,0.777,836.0,71.8,1
1775347,14203318043,281.0,245.0,66.0,0,0.816,836.0,71.8,1
1775348,14203326044,282.0,254.0,77.0,0,0.836,836.0,71.8,1
1775349,14203334046,288.0,262.0,87.0,0,0.847,836.0,71.8,1
1775350,14203342043,286.0,268.0,95.0,0,0.832,836.0,71.8,1
1775351,14203350046,288.0,273.0,102.0,0,0.824,836.0,71.8,1
1775352,14203358043,284.0,276.0,108.0,0,0.811,836.0,71.8,1
1775353,14203366043,287.0,278.0,112.0,0,0.769,836.0,71.8,1
1775354,14203374043,282.0,279.0,116.0,0,0.773,836.0,71.8,1
1775355,14203382043,275.0,278.0,118.0,0,0.724,836.0,71.8,1
1775356,14203390045,267.0,275.0,118.0,1,0.675,836.0,71.8,1
1775357,14203398043,260.0,272.0,117.0,0,0.695,836.0,71.8,1
1775358,14203406043,250.0,266.0,114.0,0,0.738,836.0,71.8,1
1775359,14203414047,240.0,260.0,111.0,0,0.731,836.0,71.8,1
1775360,14203422044,226.0,252.0,105.0,0,0.79,836.0,71.8,1
1775361,14203430043,216.0,243.0,99.0,0,0.777,836.0,71.8,1
1775362,14203438044,207.0,234.0,92.0,0,0.78,836.0,71.8,1
1775363,14203446047,199.0,226.0,84.0,0,0.776,836.0,71.8,1
1775364,14203454043,189.0,217.0,76.0,0,0.752,836.0,71.8,1
1775365,14203462043,178.0,207.0,67.0,0,0.738,836.0,71.8,1
1775366,14203470043,170.0,198.0,58.0,0,0.706,836.0,71.8,1
1775367,14203478046,159.0,189.0,49.0,0,0.672,836.0,71.8,1
1775368,14203486043,150.0,179.0,40.0,0,0.637,836.0,71.8,1
1775369,14203494045,147.0,172.0,31.0,0,0.602,836.0,71.8,1
1775370,14203502044,139.0,164.0,23.0,0,0.555,836.0,71.8,1
1775371,14203510047,137.0,157.0,15.0,0,0.525,836.0,71.8,1
1775372,14203518043,131.0,151.0,7.0,0,0.497,836.0,71.8,1
1775373,14203526043,127.0,145.0,0.0,0,0.481,836.0,71.8,1
1775374,14203534045,124.0,140.0,-6.0,0,0.481,836.0,71.8,1
1775375,14203542043,119.0,135.0,-12.0,0,0.503,836.0,71.8,1
1775376,14203550043,114.0,130.0,-18.0,0,0.526,836.0,71.8,1
1775377,14203558043,115.0,126.0,-23.0,0,0.523,836.0,71.8,1
1775378,14203566043,110.0,122.0,-27.0,0,0.516,836.0,71.8,1
1775379,14203574043,110.0,119.0,-31.0,0,0.532,836.0,71.8,1
1775380,14203582043,108.0,117.0,-35.0,0,0.548,836.0,71.8,1
1775381,14203590043,105.0,114.0,-38.0,0,0.536,836.0,71.8,1
1775382,14203598047,100.0,110.0,-41.0,0,0.548,836.0,71.8,1
1775383,14203606043,99.0,108.0,-44.0,0,0.559,836.0,71.8,1
1775384,14203614043,101.0,106.0,-47.0,0,0.571,836.0,71.8,1
1775385,14203622043,93.0,103.0,-49.0,0,0.555,836.0,71.8,1
1775386,14203630044,94.0,101.0,-52.0,0,0.589,836.0,71.8,1
1775387,14203638047,91.0,98.0,-54.0,0,0.573,836.0,71.8,1
1775388,14203646045,87.0,96.0,-56.0,0,0.579,836.0,71.8,1
1775389,14203654043,83.0,93.0,-59.0,0,0.612,836.0,71.8,1
1775390,14203662044,83.0,90.0,-61.0,0,0.596,836.0,71.8,1
1775391,14203670043,82.0,88.0,-63.0,0,0.602,836.0,71.8,1
1775392,14203678045,80.0,86.0,-65.0,0,0.608,836.0,71.8,1
1775393,14203686044,76.0,84.0,-67.0,0,0.613,836.0,71.8,1
1775394,14203694044,74.0,81.0,-69.0,0,0.619,836.0,71.8,1
1775395,14203702043,76.0,80.0,-70.0,0,0.599,836.0,71.8,1
1775396,14203710045,78.0,80.0,-71.0,0,0.601,836.0,71.8,1
1775397,14203718043,76.0,79.0,-72.0,0,0.603,836.0,71.8,1
1775398,14203726044,74.0,78.0,-73.0,0,0.605,836.0,71.8,1
1775399,14203734043,72.0,76.0,-74.0,0,0.607,836.0,71.8,1
1775400,14203742047,76.0,76.0,-74.0,1,0.585,836.0,71.8,1
1775401,14203750046,78.0,77.0,-75.0,0,0.608,836.0,71.8,1
1775402,14203758044,75.0,76.0,-75.0,1,0.586,836.0,71.8,1
1775403,14203766043,76.0,76.0,-74.0,0,0.604,836.0,71.8,1
1775404,14203774046,74.0,76.0,-74.0,1,0.581,836.0,71.8,1
1775405,14203782043,76.0,76.0,-74.0,0,0.58,836.0,71.8,1
1775406,14203790043,81.0,77.0,-74.0,0,0.579,836.0,71.8,1
1775407,14203798047,82.0,78.0,-73.0,0,0.597,836.0,71.8,1
1775408,14203806043,85.0,80.0,-71.0,0,0.613,836.0,71.8,1
1775409,14203814044,84.0,81.0,-70.0,0,0.586,836.0,71.8,1
1775410,14203822044,82.0,81.0,-69.0,0,0.582,836.0,71.8,1
1775411,14203830043,82.0,81.0,-68.0,0,0.578,836.0,71.8,1
1775412,14203838045,83.0,82.0,-67.0,0,0.574,836.0,71.8,1
1775413,14203846044,79.0,81.0,-66.0,0,0.57,836.0,71.8,1
1775414,14203854044,88.0,83.0,-65.0,0,0.566,836.0,71.8,1
1775415,14203862043,88.0,84.0,-64.0,0,0.561,836.0,71.8,1
1775416,14203870043,98.0,87.0,-62.0,0,0.577,836.0,71.8,1
1775417,14203878043,101.0,91.0,-60.0,0,0.569,836.0,71.8,1
1775418,14203886043,115.0,97.0,-56.0,0,0.603,836.0,71.8,1
1775419,14203894043,126.0,104.0,-51.0,0,0.608,836.0,71.8,1
1775420,14203902043,144.0,113.0,-45.0,0,0.609,836.0,71.8,1
1775421,14203910043,163.0,125.0,-37.0,0,0.618,836.0,71.8,1
1775422,14203918043,179.0,138.0,-28.0,0,0.6,836.0,71.8,17
1775423,14203926043,200.0,153.0,-17.0,0,0.585,836.0,71.8,17
1775424,14203934043,220.0,170.0,-5.0,0,0.552,836.0,71.8,17
1775425,14203942043,240.0,187.0,9.0,0,0.589,836.0,71.8,17
1775426,14203950043,259.0,204.0,23.0,0,0.64,836.0,71.8,17
1775427,14203958046,276.0,222.0,39.0,0,0.71,836.0,71.8,17
1775428,14203966043,289.0,238.0,54.0,0,0.76,836.0,71.8,17
1775429,14203974043,298.0,252.0,69.0,0,0.81,836.0,71.8,17
1775430,14203982046,308.0,266.0,83.0,0,0.843,836.0,71.8,17
1775431,14203990043,316.0,278.0,97.0,0,0.874,836.0,71.8,17
1775432,14203998047,325.0,289.0,109.0,0,0.879,836.0,71.8,17
1775433,14204006046,330.0,299.0,121.0,0,0.895,836.0,71.8,17
1775434,14204014047,332.0,307.0,131.0,0,0.882,836.0,71.8,17
1775435,14204022043,332.0,313.0,140.0,0,0.875,836.0,71.8,17
1775436,14204030046,332.0,318.0,147.0,0,0.845,836.0,71.8,17
1775437,14204038045,325.0,320.0,152.0,0,0.808,836.0,71.8,17
1775438,14204046043,321.0,320.0,156.0,0,0.788,836.0,71.8,17
1775439,14204054043,316.0,319.0,158.0,0,0.745,836.0,71.8,17
1775440,14204062046,310.0,317.0,158.0,1,0.703,836.0,71.8,17
1775441,14204070043,303.0,313.0,157.0,0,0.721,836.0,71.8,17
1775442,14204078047,292.0,308.0,155.0,0,0.74,836.0,71.8,17
1775443,14204086045,281.0,302.0,151.0,0,0.779,836.0,71.8,17
1775444,14204094045,268.0,293.0,146.0,0,0.795,836.0,71.8,17
1775445,14204102045,252.0,283.0,139.0,0,0.827,836.0,71.8,17
1775446,14204110047,240.0,273.0,131.0,0,0.834,836.0,71.8,17
1775447,14204118045,227.0,262.0,121.0,0,0.847,836.0,71.8,17
1775448,14204126047,213.0,250.0,111.0,0,0.828,836.0,71.8,17
1775449,14204134045,202.0,238.0,101.0,0,0.806,836.0,71.8,17
1775450,14204142047,187.0,226.0,89.0,0,0.798,836.0,71.8,17
1775451,14204150047,174.0,213.0,78.0,0,0.756,836.0,71.8,17
1775452,14204158045,160.0,200.0,65.0,0,0.735,836.0,71.8,17
1775453,14204166046,150.0,188.0,53.0,0,0.686,836.0,71.8,17
1775454,14204174045,140.0,176.0,41.0,0,0.644,836.0,71.8,17
1775455,14204182047,127.0,164.0,29.0,0,0.603,836.0,71.8,17
1775456,14204190044,120.0,154.0,17.0,0,0.563,836.0,71.8,17
1775457,14204198044,111.0,143.0,6.0,0,0.518,836.0,71.8,17
1775458,14204206043,104.0,134.0,-5.0,0,0.538,836.0,71.8,17
1775459,14204214043,102.0,126.0,-14.0,0,0.539,836.0,71.8,17
1775460,14204222046,92.0,118.0,-24.0,0,0.585,836.0,71.8,17
1775461,14204230047,89.0,111.0,-32.0,0,0.581,836.0,71.8,17
1775462,14204238043,84.0,104.0,-40.0,0,0.608,836.0,71.8,17
1775463,14204246043,82.0,99.0,-47.0,0,0.613,836.0,71.8,17
1775464,14204254043,76.0,93.0,-53.0,0,0.613,836.0,71.8,17
1775465,14204262047,76.0,89.0,-59.0,0,0.632,836.0,71.8,17
1775466,14204270043,76.0,86.0,-64.0,0,0.627,836.0,71.8,17
1775467,14204278043,71.0,82.0,-68.0,0,0.618,836.0,71.8,17
1775468,14204286043,68.0,79.0,-72.0,0,0.629,836.0,71.8,17
1775469,14204294047,66.0,76.0,-76.0,0,0.639,836.0,71.8,17
1775470,14204302043,60.0,72.0,-79.0,0,0.626,836.0,71.8,17
1775471,14204310044,57.0,68.0,-82.0,0,0.633,836.0,71.8,17
1775472,14204318043,57.0,66.0,-85.0,0,0.64,836.0,71.8,17
1775473,14204326043,52.0,62.0,-88.0,0,0.647,836.0,71.8,17
1775474,14204334043,52.0,60.0,-91.0,0,0.653,836.0,71.8,17
1775475,14204342043,48.0,57.0,-93.0,0,0.637,836.0,71.8,17
1775476,14204350043,50.0,55.0,-95.0,0,0.64,836.0,71.8,17
1775477,14204358043,48.0,53.0,-97.0,0,0.644,836.0,71.8,17
1775478,14204366043,47.0,52.0,-99.0,0,0.647,836.0,71.8,17
1775479,14204374043,48.0,51.0,-100.0,0,0.629,836.0,71.8,17
1775480,14204382046,45.0,50.0,-101.0,0,0.63,836.0,71.8,17
1775481,14204390043,45.0,48.0,-102.0,0,0.631,836.0,71.8,17
1775482,14204398044,44.0,47.0,-103.0,0,0.632,836.0,71.8,17
1775483,14204406047,46.0,47.0,-103.0,1,0.613,836.0,71.8,17
1775484,14204414044,48.0,47.0,-103.0,0,0.612,836.0,71.8,17
1775485,14204422043,46.0,47.0,-103.0,0,0.611,836.0,71.8,17
1775486,14204430044,46.0,47.0,-103.0,0,0.61,836.0,71.8,17
1775487,14204438043,46.0,47.0,-102.0,0,0.625,836.0,71.8,17
1775488,14204446047,51.0,48.0,-102.0,1,0.605,836.0,71.8,17
1775489,14204454043,51.0,48.0,-101.0,0,0.621,836.0,71.8,17
1775490,14204462047,52.0,49.0,-100.0,0,0.617,836.0,71.8,17
1775491,14204470047,56.0,51.0,-98.0,0,0.631,836.0,71.8,17
1775492,14204478043,55.0,52.0,-97.0,0,0.609,836.0,71.8,17
1775493,14204486046,57.0,53.0,-95.0,0,0.622,836.0,71.8,17
1775494,14204494043,64.0,56.0,-93.0,0,0.617,836.0,71.8,17
1775495,14204502047,61.0,57.0,-91.0,0,0.611,836.0,71.8,17
1775496,14204510043,65.0,59.0,-89.0,0,0.605,836.0,71.8,17
1775497,14204518047,66.0,61.0,-87.0,0,0.599,836.0,71.8,17
1775498,14204526043,68.0,62.0,-85.0,0,0.593,836.0,71.8,17
1775499,14204534043,70.0,64.0,-82.0,0,0.605,836.0,71.8,17
1775500,14204542044,70.0,66.0,-80.0,0,0.579,836.0,71.8,17
1775501,14204550046,76.0,68.0,-78.0,0,0.573,836.0,71.8,17
1775502,14204558043,76.0,70.0,-76.0,0,0.566,836.0,71.8,17
1775503,14204566043,78.0,72.0,-73.0,0,0.577,836.0,71.8,17
1775504,14204574043,79.0,74.0,-71.0,0,0.551,836.0,71.8,17
1775505,14204582046,81.0,75.0,-69.0,0,0.544,836.0,71.8,17
1775506,14204590043,80.0,77.0,-67.0,0,0.538,836.0,71.8,17
1775507,14204598043,83.0,78.0,-65.0,0,0.531,836.0,71.8,17
1775508,14204606043,83.0,79.0,-63.0,0,0.524,836.0,71.8,17
1775509,14204614047,89.0,82.0,-60.0,0,0.535,836.0,71.8,17
1775510,14204622044,95.0,85.0,-58.0,0,0.508,836.0,71.8,17
1775511,14204630045,105.0,90.0,-55.0,0,0.519,836.0,71.8,17
1775512,14204638043,114.0,96.0,-51.0,0,0.526,836.0,71.8,17
1775513,14204646045,134.0,105.0,-45.0,0,0.548,836.0,71.8,17
1775514,14204654043,148.0,115.0,-38.0,0,0.545,836.0,71.8,17
1775515,14204662043,167.0,128.0,-29.0,0,0.551,836.0,71.8,17
1775516,14204670044,183.0,141.0,-19.0,0,0.535,836.0,71.8,17
1775517,14204678047,206.0,157.0,-8.0,0,0.516,836.0,71.8,17
1775518,14204686044,224.0,173.0,5.0,0,0.563,836.0,71.8,17
1775519,14204694047,247.0,191.0,19.0,0,0.612,836.0,71.8,17
1775520,14204702043,265.0,209.0,34.0,0,0.665,836.0,71.8,17
1775521,14204710043,287.0,228.0,50.0,0,0.721,836.0,71.8,17
1775522,14204718047,302.0,246.0,67.0,0,0.775,836.0,71.8,17
1775523,14204726043,316.0,263.0,83.0,0,0.811,836.0,71.8,17
1775524,14204734045,330.0,279.0,99.0,0,0.845,836.0,71.8,17
1775525,14204742043,336.0,293.0,114.0,0,0.865,836.0,71.8,17
1775526,14204750047,343.0,305.0,128.0,0,0.877,836.0,71.8,17
1775527,14204758047,348.0,315.0,141.0,0,0.882,836.0,71.8,17
1775528,14204766046,351.0,324.0,152.0,0,0.869,836.0,71.8,17
1775529,14204774046,351.0,331.0,161.0,0,0.848,836.0,71.8,17
1775530,14204782046,348.0,335.0,169.0,0,0.837,836.0,71.8,17
1775531,14204790046,345.0,337.0,175.0,0,0.806,836.0,71.8,17
1775532,14204798046,340.0,338.0,179.0,0,0.77,836.0,71.8,17
1775533,14204806047,335.0,337.0,181.0,0,0.732,836.0,71.8,17
1775534,14204814046,327.0,335.0,182.0,0,0.713,836.0,71.8,17
1775535,14204822045,316.0,330.0,180.0,1,0.728,836.0,71.8,17
1775536,14204830043,306.0,324.0,177.0,0,0.743,836.0,71.8,17
1775537,14204838044,290.0,316.0,173.0,0,0.758,836.0,71.8,17
1775538,14204846043,276.0,306.0,166.0,0,0.805,836.0,71.8,17
1775539,14204854047,263.0,296.0,158.0,0,0.812,836.0,71.8,17
1775540,14204862047,244.0,283.0,149.0,0,0.815,836.0,71.8,17
1775541,14204870044,229.0,270.0,138.0,0,0.826,836.0,71.8,17
1775542,14204878043,217.0,257.0,127.0,0,0.806,836.0,71.8,17
1775543,14204886046,200.0,243.0,114.0,0,0.803,836.0,71.8,17
1775544,14204894047,186.0,229.0,101.0,0,0.774,836.0,71.8,17
1775545,14204902045,171.0,215.0,88.0,0,0.742,836.0,71.8,17
1775546,14204910046,162.0,202.0,75.0,0,0.708,836.0,71.8,17
1775547,14204918043,147.0,189.0,61.0,0,0.679,836.0,71.8,17
1775548,14204926046,141.0,177.0,48.0,0,0.633,836.0,71.8,17
1775549,14204934046,130.0,166.0,36.0,0,0.589,836.0,71.8,17
1775550,14204942045,119.0,154.0,24.0,0,0.556,836.0,71.8,17
1775551,14204950043,114.0,145.0,12.0,0,0.525,836.0,71.8,17
1775552,14204958047,108.0,136.0,2.0,0,0.479,836.0,71.8,17
1775553,14204966046,96.0,126.0,-9.0,0,0.518,836.0,71.8,17
1775554,14204974044,91.0,118.0,-19.0,0,0.53,836.0,71.8,17
1775555,14204982047,84.0,109.0,-28.0,0,0.539,836.0,71.8,17
1775556,14204990043,84.0,103.0,-36.0,0,0.545,836.0,71.8,17
1775557,14204998047,78.0,97.0,-43.0,0,0.547,836.0,71.8,17
1775558,14205006043,75.0,92.0,-50.0,0,0.566,836.0,71.8,17
1775559,14205014046,62.0,85.0,-57.0,0,0.584,836.0,71.8,17
1775560,14205022043,61.0,79.0,-63.0,0,0.583,836.0,71.8,17
1775561,14205030046,60.0,74.0,-69.0,0,0.598,836.0,71.8,17
1775562,14205038043,55.0,70.0,-74.0,0,0.593,836.0,71.8,17
1775563,14205046043,55.0,66.0,-79.0,0,0.605,836.0,71.8,17
1775564,14205054043,51.0,62.0,-83.0,0,0.597,836.0,71.8,17
1775565,14205062043,47.0,59.0,-87.0,0,0.606,836.0,71.8,17
1775566,14205070043,47.0,56.0,-90.0,0,0.595,836.0,71.8,17
1775567,14205078047,43.0,53.0,-93.0,0,0.601,836.0,71.8,17
1775568,14205086045,41.0,50.0,-96.0,0,0.607,836.0,71.8,17
1775569,14205094043,38.0,47.0,-99.0,0,0.613,836.0,71.8,17
1775570,14205102043,42.0,46.0,-101.0,0,0.599,836.0,71.8,17
1775571,14205110043,41.0,45.0,-102.0,0,0.584,836.0,71.8,17
1775572,14205118047,40.0,44.0,-103.0,0,0.585,836.0,71.8,17
1775573,14205126047,39.0,42.0,-104.0,0,0.587,836.0,71.8,17
1775574,14205134047,36.0,41.0,-105.0,0,0.588,836.0,71.8,17
1775575,14205142046,39.0,40.0,-106.0,0,0.589,836.0,71.8,17
1775576,14205150047,42.0,41.0,-106.0,1,0.572,836.0,71.8,17
1775577,14205158043,41.0,41.0,-106.0,0,0.572,836.0,71.8,17
1775578,14205166046,42.0,41.0,-106.0,0,0.571,836.0,71.8,17
1775579,14205174047,41.0,41.0,-105.0,0,0.583,836.0,71.8,17
1775580,14205182046,41.0,41.0,-105.0,1,0.567,836.0,71.8,17
1775581,14205190043,45.0,42.0,-104.0,0,0.579,836.0,71.8,17
1775582,14205198047,41.0,42.0,-103.0,0,0.576,836.0,71.8,17
1775583,14205206043,45.0,43.0,-102.0,0,0.573,836.0,71.8,17
1775584,14205214043,45.0,43.0,-101.0,0,0.57,836.0,71.8,17
1775585,14205222043,46.0,44.0,-100.0,0,0.567,836.0,71.8,17
1775586,14205230047,53.0,46.0,-98.0,0,0.578,836.0,71.8,17
1775587,14205238043,50.0,47.0,-97.0,0,0.558,836.0,71.8,17
1775588,14205246043,57.0,49.0,-95.0,0,0.569,836.0,71.8,17
1775589,14205254045,56.0,51.0,-93.0,0,0.563,836.0,71.8,17
1775590,14205262043,56.0,52.0,-91.0,0,0.558,836.0,71.8,17
1775591,14205270045,60.0,54.0,-89.0,0,0.552,836.0,71.8,17
1775592,14205278043,63.0,56.0,-86.0,0,0.561,836.0,71.8,17
1775593,14205286047,65.0,58.0,-84.0,0,0.538,836.0,71.8,17
1775594,14205294043,69.0,61.0,-81.0,0,0.547,836.0,71.8,17
1775595,14205302043,70.0,63.0,-79.0,0,0.524,836.0,71.8,17
1775596,14205310043,68.0,64.0,-77.0,0,0.518,836.0,71.8,17
1775597,14205318047,68.0,65.0,-74.0,0,0.527,836.0,71.8,17
1775598,14205326044,72.0,67.0,-72.0,0,0.503,836.0,71.8,17
1775599,14205334046,77.0,69.0,-70.0,0,0.497,836.0,71.8,17
1775600,14205342043,78.0,71.0,-68.0,0,0.491,836.0,71.8,17
1775601,14205350045,78.0,73.0,-65.0,0,0.5,836.0,71.8,17
1775602,14205358043,81.0,75.0,-63.0,0,0.476,836.0,71.8,17
1775603,14205366047,89.0,78.0,-61.0,0,0.47,836.0,71.8,17
1775604,14205374043,87.0,80.0,-58.0,0,0.479,836.0,71.8,17
1775605,14205382043,89.0,83.0,-55.0,0,0.47,836.0,71.8,17
1775606,14205390043,95.0,86.0,-53.0,0,0.446,836.0,71.8,17
1775607,14205398046,101.0,89.0,-49.0,0,0.471,836.0,71.8,17
1775608,14205406044,111.0,95.0,-46.0,0,0.444,836.0,71.8,17
1775609,14205414043,124.0,102.0,-41.0,0,0.467,836.0,71.8,17
1775610,14205422043,141.0,111.0,-35.0,0,0.469,836.0,71.8,17
1775611,14205430045,160.0,123.0,-27.0,0,0.483,836.0,71.8,17
1775612,14205438046,174.0,135.0,-18.0,0,0.477,836.0,71.8,17
1775613,14205446045,194.0,150.0,-7.0,0,0.507,836.0,71.8,17
1775614,14205454043,216.0,166.0,5.0,0,0.547,836.0,71.8,17
1775615,14205462046,236.0,183.0,18.0,0,0.59,836.0,71.8,17
1775616,14205470046,255.0,200.0,33.0,0,0.645,836.0,71.8,17
1775617,14205478045,274.0,218.0,48.0,0,0.683,836.0,71.8,17
1775618,14205486043,290.0,236.0,64.0,0,0.729,836.0,71.8,17
1775619,14205494047,306.0,253.0,80.0,0,0.765,836.0,71.8,17
1775620,14205502043,318.0,268.0,95.0,0,0.788,836.0,71.8,17
1775621,14205510047,329.0,283.0,110.0,0,0.815,836.0,71.8,17
1775622,14205518046,334.0,295.0,124.0,0,0.827,836.0,71.8,17
1775623,14205526046,340.0,306.0,137.0,0,0.834,836.0,71.8,17
1775624,14205534043,344.0,315.0,148.0,0,0.823,836.0,71.8,17
1775625,14205542043,343.0,322.0,158.0,0,0.819,836.0,71.8,17
1775626,14205550047,342.0,327.0,166.0,0,0.796,836.0,71.8,17
1775627,14205558045,338.0,330.0,172.0,0,0.768,836.0,71.8,17
1775628,14205566047,340.0,332.0,177.0,0,0.754,836.0,71.8,17
1775629,14205574046,333.0,332.0,180.0,0,0.721,836.0,71.8,17
1775630,14205582046,325.0,331.0,181.0,0,0.688,836.0,71.8,17
1775631,14205590044,320.0,328.0,181.0,1,0.671,836.0,71.8,17
1775632,14205598043,304.0,322.0,179.0,0,0.699,836.0,71.8,17
1775633,14205606044,293.0,315.0,175.0,0,0.726,836.0,71.8,17
1775634,14205614043,284.0,308.0,170.0,0,0.736,836.0,71.8,17
1775635,14205622045,264.0,297.0,163.0,0,0.759,836.0,71.8,17
1775636,14205630045,249.0,285.0,154.0,0,0.777,836.0,71.8,17
1775637,14205638047,232.0,272.0,144.0,0,0.775,836.0,71.8,17
1775638,14205646046,215.0,259.0,133.0,0,0.769,836.0,71.8,17
1775639,14205654047,202.0,245.0,121.0,0,0.758,836.0,71.8,17
1775640,14205662045,188.0,231.0,108.0,0,0.743,836.0,71.8,17
1775641,14205670043,176.0,218.0,95.0,0,0.714,836.0,71.8,17
1775642,14205678043,163.0,204.0,82.0,0,0.684,836.0,71.8,17
1775643,14205686043,152.0,192.0,68.0,0,0.66,836.0,71.8,17
1775644,14205694047,142.0,180.0,56.0,0,0.61,836.0,71.8,17
1775645,14205702047,133.0,168.0,43.0,0,0.59,836.0,71.8,17
1775646,14205710047,122.0,157.0,31.0,0,0.55,836.0,71.8,17
1775647,14205718043,118.0,148.0,20.0,0,0.513,836.0,71.8,17
1775648,14205726043,108.0,138.0,9.0,0,0.489,836.0,71.8,17
1775649,14205734047,101.0,129.0,-1.0,0,0.47,836.0,71.8,17
1775650,14205742043,97.0,121.0,-11.0,0,0.49,836.0,71.8,17
1775651,14205750043,91.0,114.0,-20.0,0,0.496,836.0,71.8,17
1775652,14205758046,82.0,106.0,-28.0,0,0.499,836.0,71.8,17
1775653,14205766043,86.0,101.0,-35.0,0,0.5,836.0,71.8,17
1775654,14205774043,80.0,96.0,-42.0,0,0.516,836.0,71.8,17
1775655,14205782043,76.0,91.0,-48.0,0,0.515,836.0,71.8,17
1775656,14205790046,76.0,88.0,-53.0,0,0.511,836.0,71.8,17
1775657,14205798046,71.0,84.0,-58.0,0,0.522,836.0,71.8,17
1775658,14205806045,72.0,81.0,-62.0,0,0.516,836.0,71.8,17
1775659,14205814043,76.0,80.0,-65.0,0,0.507,836.0,71.8,17
1775660,14205822045,68.0,77.0,-68.0,0,0.514,836.0,71.8,17
1775661,14205830043,64.0,74.0,-70.0,0,0.502,836.0,71.8,17
1775662,14205838043,64.0,71.0,-73.0,0,0.524,836.0,71.8,17
1775663,14205846047,60.0,69.0,-75.0,0,0.512,836.0,71.8,17
1775664,14205854043,63.0,67.0,-77.0,0,0.516,836.0,71.8,17
1775665,14205862046,60.0,65.0,-79.0,0,0.52,836.0,71.8,17
1775666,14205870043,58.0,64.0,-81.0,0,0.523,836.0,71.8,17
1775667,14205878047,56.0,62.0,-82.0,0,0.509,836.0,71.8,17
1775668,14205886045,52.0,59.0,-84.0,0,0.528,836.0,71.8,17
1775669,14205894043,55.0,58.0,-85.0,0,0.514,836.0,71.8,17
1775670,14205902045,51.0,57.0,-86.0,0,0.515,836.0,71.8,17
1775671,14205910047,52.0,55.0,-87.0,0,0.516,836.0,71.8,17
1775672,14205918043,50.0,54.0,-88.0,0,0.517,836.0,71.8,17
1775673,14205926043,48.0,53.0,-89.0,0,0.518,836.0,71.8,17
1775674,14205934043,49.0,52.0,-90.0,0,0.519,836.0,71.8,17
1775675,14205942044,50.0,51.0,-90.0,1,0.503,836.0,71.8,17
1775676,14205950044,52.0,51.0,-91.0,0,0.519,836.0,71.8,17
1775677,14205958043,47.0,50.0,-91.0,1,0.503,836.0,71.8,17
1775678,14205966043,52.0,51.0,-91.0,0,0.502,836.0,71.8,17
1775679,14205974045,56.0,52.0,-90.0,0,0.513,836.0,71.8,17
1775680,14205982043,59.0,54.0,-89.0,0,0.51,836.0,71.8,17
1775681,14205990046,64.0,56.0,-87.0,0,0.52,836.0,71.8,17
1775682,14205998043,65.0,58.0,-85.0,0,0.514,836.0,71.8,17
1775683,14206006043,65.0,60.0,-83.0,0,0.509,836.0,71.8,17
1775684,14206014043,75.0,64.0,-81.0,0,0.503,836.0,71.8,17
1775685,14206022043,72.0,66.0,-78.0,0,0.511,836.0,71.8,17
1775686,14206030043,71.0,67.0,-76.0,0,0.489,836.0,71.8,17
1775687,14206038043,72.0,68.0,-74.0,0,0.484,836.0,71.8,17
1775688,14206046043,76.0,70.0,-72.0,0,0.478,836.0,71.8,17
1775689,14206054043,80.0,72.0,-69.0,0,0.487,836.0,71.8,17
1775690,14206062046,75.0,73.0,-67.0,0,0.465,836.0,71.8,17
1775691,14206070043,80.0,75.0,-65.0,0,0.46,836.0,71.8,17
1775692,14206078043,79.0,76.0,-63.0,0,0.455,836.0,71.8,17
1775693,14206086045,83.0,78.0,-61.0,0,0.449,836.0,71.8,17
1775694,14206094044,82.0,79.0,-60.0,0,0.431,836.0,71.8,17
1775695,14206102047,85.0,80.0,-58.0,0,0.442,836.0,71.8,17
1775696,14206110044,88.0,82.0,-56.0,0,0.437,836.0,71.8,17
1775697,14206118043,86.0,83.0,-54.0,0,0.432,836.0,71.8,17
1775698,14206126043,87.0,84.0,-52.0,0,0.427,836.0,71.8,17
1775699,14206134043,89.0,85.0,-51.0,0,0.408,836.0,71.8,17
1775700,14206142043,90.0,86.0,-49.0,0,0.42,836.0,71.8,17
1775701,14206150043,93.0,88.0,-48.0,0,0.401,836.0,71.8,17
1775702,14206158043,96.0,90.0,-46.0,0,0.413,836.0,71.8,17
1775703,14206166043,101.0,93.0,-44.0,0,0.408,836.0,71.8,17
1775704,14206174046,102.0,95.0,-41.0,0,0.418,836.0,71.8,17
1775705,14206182043,102.0,97.0,-39.0,0,0.397,836.0,71.8,17
1775706,14206190046,107.0,99.0,-37.0,0,0.393,836.0,71.8,17
1775707,14206198043,112.0,102.0,-34.0,0,0.403,836.0,71.8,17
1775708,14206206046,121.0,107.0,-31.0,0,0.396,836.0,71.8,17
1775709,14206214045,127.0,112.0,-27.0,0,0.404,836.0,71.8,17
1775710,14206222047,139.0,118.0,-23.0,0,0.396,836.0,71.8,17
1775711,14206230043,153.0,127.0,-17.0,0,0.418,836.0,71.8,17
1775712,14206238043,167.0,136.0,-10.0,0,0.431,836.0,71.8,17
1775713,14206246046,180.0,147.0,-2.0,0,0.463,836.0,71.8,17
1775714,14206254043,203.0,161.0,7.0,0,0.496,836.0,71.8,17
1775715,14206262043,220.0,175.0,18.0,0,0.547,836.0,71.8,17
1775716,14206270045,239.0,191.0,30.0,0,0.585,836.0,71.8,17
1775717,14206278043,261.0,208.0,43.0,0,0.625,836.0,71.8,17
1775718,14206286043,283.0,226.0,58.0,0,0.677,836.0,71.8,17
1775719,14206294043,300.0,244.0,73.0,0,0.71,836.0,71.8,17
1775720,14206302045,320.0,262.0,89.0,0,0.75,836.0,71.8,17
1775721,14206310043,339.0,281.0,105.0,0,0.78,836.0,71.8,17
1775722,14206318047,355.0,299.0,122.0,0,0.815,836.0,71.8,17
1775723,14206326047,368.0,316.0,138.0,0,0.83,836.0,71.8,17
1775724,14206334043,372.0,329.0,153.0,0,0.84,836.0,71.8,17
1775725,14206342045,380.0,342.0,167.0,0,0.845,836.0,71.8,17
1775726,14206350047,381.0,351.0,180.0,0,0.846,836.0,71.8,17
1775727,14206358043,380.0,358.0,190.0,0,0.817,836.0,71.8,17
1775728,14206366044,378.0,363.0,198.0,0,0.794,836.0,71.8,17
1775729,14206374043,373.0,365.0,205.0,0,0.783,836.0,71.8,17
1775730,14206382045,368.0,366.0,209.0,0,0.737,836.0,71.8,17
1775731,14206390043,362.0,365.0,211.0,0,0.706,836.0,71.8,17
1775732,14206398043,345.0,360.0,211.0,1,0.676,836.0,71.8,17
1775733,14206406043,332.0,353.0,209.0,0,0.701,836.0,71.8,17
1775734,14206414043,320.0,345.0,204.0,0,0.742,836.0,71.8,17
1775735,14206422047,295.0,333.0,197.0,0,0.764,836.0,71.8,17
1775736,14206430045,290.0,323.0,189.0,0,0.77,836.0,71.8,17
1775737,14206438046,272.0,310.0,179.0,0,0.784,836.0,71.8,17
1775738,14206446043,255.0,297.0,168.0,0,0.782,836.0,71.8,17
1775739,14206454045,230.0,281.0,155.0,0,0.785,836.0,71.8,17
1775740,14206462043,219.0,266.0,142.0,0,0.763,836.0,71.8,17
1775741,14206470047,205.0,251.0,128.0,0,0.747,836.0,71.8,17
1775742,14206478047,185.0,235.0,113.0,0,0.727,836.0,71.8,17
1775743,14206486043,172.0,220.0,98.0,0,0.696,836.0,71.8,17
1775744,14206494043,157.0,205.0,83.0,0,0.664,836.0,71.8,17
1775745,14206502046,146.0,190.0,68.0,0,0.632,836.0,71.8,17
1775746,14206510047,138.0,178.0,53.0,0,0.6,836.0,71.8,17
1775747,14206518043,124.0,165.0,39.0,0,0.562,836.0,71.8,17
1775748,14206526046,118.0,153.0,26.0,0,0.526,836.0,71.8,17
1775749,14206534043,109.0,143.0,14.0,0,0.493,836.0,71.8,17
1775750,14206542043,100.0,132.0,2.0,0,0.489,836.0,71.8,17
1775751,14206550046,94.0,123.0,-9.0,0,0.498,836.0,71.8,17
1775752,14206558046,87.0,114.0,-19.0,0,0.505,836.0,71.8,17
1775753,14206566047,85.0,107.0,-29.0,0,0.524,836.0,71.8,17
1775754,14206574047,79.0,100.0,-37.0,0,0.513,836.0,71.8,17
1775755,14206582047,76.0,94.0,-45.0,0,0.529,836.0,71.8,17
1775756,14206590043,69.0,88.0,-52.0,0,0.528,836.0,71.8,17
1775757,14206598043,68.0,83.0,-58.0,0,0.525,836.0,71.8,17
1775758,14206606046,69.0,80.0,-63.0,0,0.52,836.0,71.8,17
1775759,14206614046,69.0,77.0,-68.0,0,0.529,836.0,71.8,17
1775760,14206622045,61.0,73.0,-72.0,0,0.521,836.0,71.8,17
1775761,14206630043,64.0,71.0,-75.0,0,0.512,836.0,71.8,17
1775762,14206638044,59.0,68.0,-78.0,0,0.517,836.0,71.8,17
1775763,14206646043,57.0,65.0,-81.0,0,0.522,836.0,71.8,17
1775764,14206654045,53.0,62.0,-84.0,0,0.528,836.0,71.8,17
1775765,14206662043,51.0,60.0,-87.0,0,0.533,836.0,71.8,17
1775766,14206670043,50.0,57.0,-89.0,0,0.521,836.0,71.8,17
1775767,14206678043,46.0,55.0,-91.0,0,0.524,836.0,71.8,17
1775768,14206686043,35.0,50.0,-94.0,0,0.544,836.0,71.8,17
1775769,14206694043,41.0,48.0,-96.0,0,0.533,836.0,71.8,17
1775770,14206702043,40.0,46.0,-98.0,0,0.536,836.0,71.8,17
1775771,14206710043,37.0,44.0,-100.0,0,0.539,836.0,71.8,17
1775772,14206718047,33.0,41.0,-102.0,0,0.542,836.0,71.8,17
1775773,14206726047,36.0,40.0,-104.0,0,0.544,836.0,71.8,17
1775774,14206734047,36.0,39.0,-105.0,0,0.531,836.0,71.8,17
1775775,14206742043,34.0,38.0,-106.0,0,0.532,836.0,71.8,17
1775776,14206750046,35.0,37.0,-106.0,1,0.516,836.0,71.8,17
1775777,14206758043,32.0,36.0,-107.0,0,0.532,836.0,71.8,17
1775778,14206766045,37.0,36.0,-107.0,1,0.516,836.0,71.8,17
1775779,14206774043,39.0,37.0,-107.0,0,0.515,836.0,71.8,17
1775780,14206782047,38.0,37.0,-106.0,0,0.527,836.0,71.8,17
1775781,14206790043,46.0,39.0,-105.0,0,0.524,836.0,71.8,17
1775782,14206798043,47.0,41.0,-104.0,0,0.521,836.0,71.8,17
1775783,14206806043,49.0,43.0,-102.0,0,0.532,836.0,71.8,17
1775784,14206814045,53.0,45.0,-100.0,0,0.527,836.0,71.8,17
1775785,14206822045,55.0,48.0,-97.0,0,0.536,836.0,71.8,17
1775786,14206830043,59.0,50.0,-94.0,0,0.529,836.0,71.8,17
1775787,14206838047,61.0,53.0,-92.0,0,0.509,836.0,71.8,17
1775788,14206846043,68.0,57.0,-88.0,0,0.532,836.0,71.8,17
1775789,14206854044,74.0,61.0,-85.0,0,0.51,836.0,71.8,17
1775790,14206862045,78.0,65.0,-81.0,0,0.517,836.0,71.8,17
1775791,14206870043,81.0,69.0,-77.0,0,0.508,836.0,71.8,17
1775792,14206878045,84.0,73.0,-73.0,0,0.5,836.0,71.8,17
1775793,14206886043,90.0,77.0,-69.0,0,0.491,836.0,71.8,17
1775794,14206894045,90.0,80.0,-65.0,0,0.483,836.0,71.8,17
1775795,14206902043,92.0,83.0,-61.0,0,0.474,836.0,71.8,17
1775796,14206910044,93.0,85.0,-57.0,0,0.466,836.0,71.8,17
1775797,14206918043,100.0,89.0,-54.0,0,0.444,836.0,71.8,17
1775798,14206926043,100.0,92.0,-50.0,0,0.452,836.0,71.8,17
1775799,14206934043,102.0,94.0,-47.0,0,0.43,836.0,71.8,17
1775800,14206942043,104.0,97.0,-44.0,0,0.424,836.0,71.8,17
1775801,14206950043,108.0,99.0,-41.0,0,0.418,836.0,71.8,17
1775802,14206958043,108.0,101.0,-38.0,0,0.412,836.0,71.8,17
1775803,14206966045,114.0,104.0,-35.0,0,0.407,836.0,71.8,17
1775804,14206974043,112.0,106.0,-32.0,0,0.401,836.0,71.8,17
1775805,14206982045,116.0,109.0,-30.0,0,0.382,836.0,71.8,17
1775806,14206990046,117.0,111.0,-27.0,0,0.392,836.0,71.8,17
1775807,14206998046,117.0,112.0,-25.0,0,0.373,836.0,71.8,17
1775808,14207006047,120.0,114.0,-23.0,0,0.369,836.0,71.8,17
1775809,14207014044,120.0,116.0,-21.0,0,0.366,836.0,71.8,17
1775810,14207022046,124.0,118.0,-19.0,0,0.363,836.0,71.8,17
1775811,14207030046,123.0,119.0,-17.0,0,0.359,836.0,71.8,17
1775812,14207038047,122.0,120.0,-15.0,0,0.356,836.0,71.8,17
1775813,14207046045,125.0,121.0,-14.0,0,0.339,836.0,71.8,17
1775814,14207054047,125.0,122.0,-13.0,0,0.338,836.0,71.8,17
1775815,14207062046,123.0,122.0,-11.0,0,0.35,836.0,71.8,17
1775816,14207070046,126.0,123.0,-10.0,0,0.333,836.0,71.8,17
1775817,14207078045,123.0,123.0,-10.0,1,0.319,836.0,71.8,17
1775818,14207086043,125.0,124.0,-9.0,0,0.332,836.0,71.8,17
1775819,14207094043,125.0,124.0,-8.0,0,0.331,836.0,71.8,17
1775820,14207102043,127.0,125.0,-8.0,1,0.317,836.0,71.8,17
1775821,14207110043,127.0,125.0,-7.0,0,0.33,836.0,71.8,17
1775822,14207118043,135.0,128.0,-6.0,0,0.328,836.0,71.8,17
1775823,14207126043,140.0,131.0,-4.0,0,0.343,836.0,71.8,17
1775824,14207134043,150.0,135.0,-2.0,0,0.346,836.0,71.8,17
1775825,14207142047,160.0,141.0,2.0,0,0.385,836.0,71.8,17
1775826,14207150043,173.0,149.0,6.0,0,0.392,836.0,71.8,17
1775827,14207158046,193.0,160.0,13.0,0,0.454,836.0,71.8,17
1775828,14207166043,210.0,172.0,21.0,0,0.485,836.0,71.8,17
1775829,14207174043,232.0,186.0,30.0,0,0.518,836.0,71.8,17
1775830,14207182047,249.0,202.0,42.0,0,0.582,836.0,71.8,17
1775831,14207190047,270.0,218.0,54.0,0,0.607,836.0,71.8,17
1775832,14207198046,292.0,236.0,68.0,0,0.658,836.0,71.8,17
1775833,14207206047,308.0,254.0,83.0,0,0.699,836.0,71.8,17
1775834,14207214047,324.0,271.0,98.0,0,0.728,836.0,71.8,17
1775835,14207222043,334.0,286.0,113.0,0,0.756,836.0,71.8,17
1775836,14207230044,354.0,302.0,128.0,0,0.781,836.0,71.8,17
1775837,14207238043,364.0,317.0,142.0,0,0.792,836.0,71.8,17
1775838,14207246046,372.0,331.0,156.0,0,0.811,836.0,71.8,17
1775839,14207254043,376.0,342.0,169.0,0,0.816,836.0,71.8,17
1775840,14207262044,380.0,351.0,180.0,0,0.804,836.0,71.8,17
1775841,14207270043,383.0,359.0,190.0,0,0.801,836.0,71.8,17
1775842,14207278047,377.0,363.0,198.0,0,0.78,836.0,71.8,17
1775843,14207286045,379.0,367.0,204.0,0,0.754,836.0,71.8,17
1775844,14207294047,372.0,368.0,209.0,0,0.742,836.0,71.8,17
1775845,14207302043,366.0,368.0,211.0,0,0.696,836.0,71.8,17
1775846,14207310043,359.0,366.0,212.0,0,0.681,836.0,71.8,17
1775847,14207318047,349.0,362.0,211.0,1,0.679,836.0,71.8,17
1775848,14207326043,339.0,356.0,209.0,0,0.692,836.0,71.8,17
1775849,14207334043,324.0,348.0,204.0,0,0.735,836.0,71.8,17
1775850,14207342046,311.0,339.0,198.0,0,0.745,836.0,71.8,17
1775851,14207350046,296.0,329.0,190.0,0,0.767,836.0,71.8,17
1775852,14207358045,282.0,317.0,181.0,0,0.771,836.0,71.8,17
1775853,14207366045,267.0,305.0,171.0,0,0.773,836.0,71.8,17
1775854,14207374046,244.0,290.0,159.0,0,0.781,836.0,71.8,17
1775855,14207382045,228.0,275.0,146.0,0,0.773,836.0,71.8,17
1775856,14207390046,214.0,260.0,133.0,0,0.752,836.0,71.8,17
1775857,14207398047,199.0,246.0,119.0,0,0.737,836.0,71.8,17
1775858,14207406046,185.0,231.0,104.0,0,0.718,836.0,71.8,17
1775859,14207414043,170.0,216.0,89.0,0,0.689,836.0,71.8,17
1775860,14207422047,161.0,203.0,75.0,0,0.651,836.0,71.8,17
1775861,14207430044,151.0,190.0,61.0,0,0.622,836.0,71.8,17
1775862,14207438046,139.0,178.0,48.0,0,0.585,836.0,71.8,17
1775863,14207446043,127.0,165.0,35.0,0,0.558,836.0,71.8,17
1775864,14207454043,123.0,155.0,22.0,0,0.532,836.0,71.8,17
1775865,14207462043,110.0,144.0,10.0,0,0.499,836.0,71.8,17
1775866,14207470045,109.0,136.0,0.0,0,0.463,836.0,71.8,17
1775867,14207478047,98.0,127.0,-11.0,0,0.497,836.0,71.8,17
1775868,14207486043,96.0,119.0,-20.0,0,0.488,836.0,71.8,17
1775869,14207494043,89.0,112.0,-29.0,0,0.506,836.0,71.8,17
1775870,14207502047,85.0,105.0,-37.0,0,0.508,836.0,71.8,17
1775871,14207510046,81.0,99.0,-44.0,0,0.508,836.0,71.8,17
1775872,14207518043,76.0,94.0,-51.0,0,0.523,836.0,71.8,17
1775873,14207526043,72.0,88.0,-57.0,0,0.52,836.0,71.8,17
1775874,14207534044,70.0,84.0,-62.0,0,0.515,836.0,71.8,17
1775875,14207542043,65.0,79.0,-68.0,0,0.543,836.0,71.8,17
1775876,14207550043,57.0,74.0,-73.0,0,0.538,836.0,71.8,17
1775877,14207558043,56.0,70.0,-77.0,0,0.53,836.0,71.8,17
1775878,14207566043,51.0,65.0,-82.0,0,0.556,836.0,71.8,17
1775879,14207574046,50.0,61.0,-86.0,0,0.548,836.0,71.8,17
1775880,14207582043,44.0,57.0,-90.0,0,0.556,836.0,71.8,17
1775881,14207590047,43.0,54.0,-93.0,0,0.546,836.0,71.8,17
1775882,14207598043,42.0,51.0,-96.0,0,0.552,836.0,71.8,17
1775883,14207606043,44.0,49.0,-99.0,0,0.558,836.0,71.8,17
1775884,14207614044,42.0,47.0,-101.0,0,0.546,836.0,71.8,17
1775885,14207622043,42.0,46.0,-103.0,0,0.55,836.0,71.8,17
1775886,14207630047,40.0,45.0,-104.0,0,0.536,836.0,71.8,17
1775887,14207638043,39.0,43.0,-105.0,0,0.538,836.0,71.8,17
1775888,14207646047,41.0,43.0,-106.0,0,0.54,836.0,71.8,17
1775889,14207654043,37.0,41.0,-107.0,0,0.542,836.0,71.8,17
1775890,14207662047,38.0,41.0,-108.0,0,0.544,836.0,71.8,17
1775891,14207670043,40.0,40.0,-108.0,1,0.529,836.0,71.8,17
1775892,14207678043,45.0,42.0,-107.0,0,0.541,836.0,71.8,17
1775893,14207686043,44.0,42.0,-107.0,1,0.527,836.0,71.8,17
1775894,14207694043,47.0,43.0,-106.0,0,0.539,836.0,71.8,17
1775895,14207702047,44.0,43.0,-105.0,0,0.538,836.0,71.8,17
1775896,14207710046,49.0,45.0,-104.0,0,0.536,836.0,71.8,17
1775897,14207718047,55.0,47.0,-102.0,0,0.547,836.0,71.8,17
1775898,14207726043,57.0,50.0,-100.0,0,0.543,836.0,71.8,17
1775899,14207734047,61.0,52.0,-97.0,0,0.553,836.0,71.8,17
1775900,14207742043,56.0,53.0,-95.0,0,0.533,836.0,71.8,17
1775901,14207750047,62.0,55.0,-93.0,0,0.529,836.0,71.8,17
1775902,14207758043,65.0,58.0,-90.0,0,0.539,836.0,71.8,17
1775903,14207766047,68.0,60.0,-88.0,0,0.519,836.0,71.8,17
1775904,14207774043,69.0,62.0,-85.0,0,0.529,836.0,71.8,17
1775905,14207782047,68.0,64.0,-83.0,0,0.509,836.0,71.8,17
1775906,14207790043,72.0,66.0,-80.0,0,0.519,836.0,71.8,17
1775907,14207798045,76.0,68.0,-77.0,0,0.513,836.0,71.8,17
1775908,14207806045,76.0,70.0,-75.0,0,0.493,836.0,71.8,17
1775909,14207814043,79.0,72.0,-72.0,0,0.503,836.0,71.8,17
1775910,14207822043,79.0,74.0,-70.0,0,0.483,836.0,71.8,17
1775911,14207830043,86.0,77.0,-67.0,0,0.493,836.0,71.8,17
1775912,14207838046,86.0,79.0,-65.0,0,0.473,836.0,71.8,17
1775913,14207846047,87.0,81.0,-62.0,0,0.482,836.0,71.8,17
1775914,14207854043,87.0,82.0,-60.0,0,0.463,836.0,71.8,17
1775915,14207862043,92.0,85.0,-57.0,0,0.472,836.0,71.8,17
1775916,14207870045,97.0,88.0,-55.0,0,0.452,836.0,71.8,17
1775917,14207878043,94.0,89.0,-52.0,0,0.462,836.0,71.8,17
1775918,14207886046,98.0,91.0,-50.0,0,0.442,836.0,71.8,17
1775919,14207894043,99.0,93.0,-47.0,0,0.451,836.0,71.8,17
1775920,14207902045,97.0,94.0,-45.0,0,0.432,836.0,71.8,17
1775921,14207910043,100.0,96.0,-44.0,0,0.415,836.0,71.8,17
1775922,14207918044,102.0,97.0,-42.0,0,0.426,836.0,71.8,17
1775923,14207926043,108.0,100.0,-39.0,0,0.435,836.0,71.8,17
1775924,14207934043,111.0,102.0,-37.0,0,0.416,836.0,71.8,17
1775925,14207942043,109.0,104.0,-35.0,0,0.412,836.0,71.8,17
1775926,14207950043,113.0,106.0,-33.0,0,0.408,836.0,71.8,17
1775927,14207958047,111.0,107.0,-31.0,0,0.404,836.0,71.8,17
1775928,14207966043,115.0,109.0,-29.0,0,0.4,836.0,71.8,17
1775929,14207974043,116.0,111.0,-27.0,0,0.396,836.0,71.8,17
1775930,14207982046,116.0,112.0,-25.0,0,0.392,836.0,71.8,17
1775931,14207990047,119.0,114.0,-23.0,0,0.388,836.0,71.8,17
1775932,14207998047,119.0,115.0,-21.0,0,0.384,836.0,71.8,17
1775933,14208006043,120.0,116.0,-20.0,0,0.367,836.0,71.8,17
1775934,14208014043,117.0,116.0,-19.0,0,0.365,836.0,71.8,17
1775935,14208022043,120.0,117.0,-18.0,0,0.362,836.0,71.8,17
1775936,14208030043,125.0,119.0,-16.0,0,0.374,836.0,71.8,17
1775937,14208038043,126.0,121.0,-15.0,0,0.356,836.0,71.8,17
1775938,14208046043,127.0,122.0,-13.0,0,0.368,836.0,71.8,17
1775939,14208054043,127.0,123.0,-12.0,0,0.35,836.0,71.8,17
1775940,14208062047,136.0,126.0,-10.0,0,0.361,836.0,71.8,17
1775941,14208070047,144.0,131.0,-7.0,0,0.372,836.0,71.8,17
1775942,14208078043,156.0,137.0,-4.0,0,0.366,836.0,71.8,17
1775943,14208086043,168.0,144.0,1.0,0,0.398,836.0,71.8,17
1775944,14208094043,181.0,153.0,7.0,0,0.428,836.0,71.8,17
1775945,14208102043,194.0,163.0,14.0,0,0.459,836.0,71.8,17
1775946,14208110046,216.0,176.0,22.0,0,0.493,836.0,71.8,17
1775947,14208118043,235.0,190.0,32.0,0,0.544,836.0,71.8,17
1775948,14208126046,255.0,206.0,44.0,0,0.596,836.0,71.8,17
1775949,14208134045,271.0,222.0,56.0,0,0.624,836.0,71.8,17
1775950,14208142047,289.0,238.0,70.0,0,0.676,836.0,71.8,17
1775951,14208150047,306.0,255.0,84.0,0,0.707,836.0,71.8,17
1775952,14208158044,317.0,270.0,98.0,0,0.737,836.0,71.8,17
1775953,14208166047,327.0,284.0,112.0,0,0.765,836.0,71.8,17
1775954,14208174043,341.0,297.0,125.0,0,0.778,836.0,71.8,17
1775955,14208182044,348.0,310.0,138.0,0,0.799,836.0,71.8,17
1775956,14208190043,355.0,321.0,150.0,0,0.805,836.0,71.8,17
1775957,14208198046,355.0,329.0,161.0,0,0.807,836.0,71.8,17
1775958,14208206043,358.0,336.0,170.0,0,0.79,836.0,71.8,17
1775959,14208214046,359.0,342.0,178.0,0,0.783,836.0,71.8,17
1775960,14208222046,356.0,345.0,184.0,0,0.757,836.0,71.8,17
1775961,14208230044,356.0,348.0,189.0,0,0.745,836.0,71.8,17
1775962,14208238046,350.0,348.0,192.0,0,0.713,836.0,71.8,17
1775963,14208246044,345.0,347.0,193.0,0,0.681,836.0,71.8,17
1775964,14208254043,336.0,345.0,193.0,1,0.665,836.0,71.8,17
1775965,14208262043,322.0,339.0,192.0,0,0.678,836.0,71.8,17
1775966,14208270045,316.0,334.0,188.0,0,0.722,836.0,71.8,17
1775967,14208278045,303.0,326.0,183.0,0,0.733,836.0,71.8,17
1775968,14208286045,290.0,317.0,177.0,0,0.742,836.0,71.8,17
1775969,14208294045,276.0,307.0,170.0,0,0.749,836.0,71.8,17
1775970,14208302044,263.0,297.0,161.0,0,0.768,836.0,71.8,17
1775971,14208310046,248.0,285.0,151.0,0,0.767,836.0,71.8,17
1775972,14208318047,229.0,271.0,140.0,0,0.762,836.0,71.8,17
1775973,14208326047,218.0,258.0,128.0,0,0.752,836.0,71.8,17
1775974,14208334045,201.0,244.0,115.0,0,0.738,836.0,71.8,17
1775975,14208342046,188.0,231.0,102.0,0,0.711,836.0,71.8,17
1775976,14208350046,176.0,217.0,89.0,0,0.684,836.0,71.8,17
1775977,14208358047,168.0,205.0,76.0,0,0.655,836.0,71.8,17
1775978,14208366043,155.0,193.0,63.0,0,0.626,836.0,71.8,17
1775979,14208374043,150.0,183.0,51.0,0,0.589,836.0,71.8,17
1775980,14208382046,142.0,173.0,40.0,0,0.552,836.0,71.8,17
1775981,14208390043,135.0,164.0,29.0,0,0.529,836.0,71.8,17
1775982,14208398045,124.0,154.0,18.0,0,0.506,836.0,71.8,17
1775983,14208406043,123.0,147.0,9.0,0,0.462,836.0,71.8,17
1775984,14208414047,113.0,138.0,-1.0,0,0.478,836.0,71.8,17
1775985,14208422043,109.0,131.0,-9.0,0,0.465,836.0,71.8,17
1775986,14208430043,102.0,124.0,-17.0,0,0.481,836.0,71.8,17
1775987,14208438043,99.0,118.0,-24.0,0,0.48,836.0,71.8,17
1775988,14208446043,92.0,112.0,-31.0,0,0.495,836.0,71.8,17
1775989,14208454043,92.0,107.0,-38.0,0,0.509,836.0,71.8,17
1775990,14208462047,90.0,103.0,-43.0,0,0.488,836.0,71.8,17
1775991,14208470043,86.0,99.0,-48.0,0,0.499,836.0,71.8,17
1775992,14208478044,81.0,94.0,-53.0,0,0.51,836.0,71.8,17
1775993,14208486043,80.0,91.0,-57.0,0,0.503,836.0,71.8,17
1775994,14208494043,76.0,87.0,-61.0,0,0.512,836.0,71.8,17
1775995,14208502043,71.0,83.0,-65.0,0,0.521,836.0,71.8,17
1775996,14208510043,70.0,80.0,-68.0,0,0.511,836.0,71.8,17
1775997,14208518045,69.0,77.0,-71.0,0,0.518,836.0,71.8,17
1775998,14208526043,68.0,75.0,-74.0,0,0.524,836.0,71.8,17
1775999,14208534044,68.0,73.0,-76.0,0,0.513,836.0,71.8,17
1776000,14208542043,65.0,71.0,-79.0,0,0.535,836.0,71.8,17
1776001,14208550043,61.0,69.0,-81.0,0,0.524,836.0,71.8,17
1776002,14208558043,61.0,67.0,-82.0,0,0.51,836.0,71.8,17
1776003,14208566043,63.0,66.0,-84.0,0,0.53,836.0,71.8,17
1776004,14208574043,57.0,64.0,-85.0,0,0.517,836.0,71.8,17
1776005,14208582047,60.0,63.0,-86.0,0,0.519,836.0,71.8,17
1776006,14208590043,64.0,63.0,-87.0,0,0.52,836.0,71.8,17
1776007,14208598045,60.0,62.0,-87.0,1,0.506,836.0,71.8,17
1776008,14208606043,63.0,63.0,-88.0,0,0.522,836.0,71.8,17
1776009,14208614043,61.0,62.0,-88.0,1,0.507,836.0,71.8,17
1776010,14208622045,64.0,63.0,-87.0,0,0.52,836.0,71.8,17
1776011,14208630043,68.0,64.0,-87.0,1,0.505,836.0,71.8,17
1776012,14208638043,67.0,65.0,-86.0,0,0.517,836.0,71.8,17
1776013,14208646043,64.0,65.0,-85.0,0,0.515,836.0,71.8,17
1776014,14208654043,68.0,65.0,-84.0,0,0.513,836.0,71.8,17
1776015,14208662047,68.0,66.0,-83.0,0,0.51,836.0,71.8,17
1776016,14208670043,71.0,67.0,-82.0,0,0.508,836.0,71.8,17
1776017,14208678043,70.0,68.0,-81.0,0,0.506,836.0,71.8,17
1776018,14208686043,76.0,70.0,-79.0,0,0.517,836.0,71.8,17
1776019,14208694047,76.0,71.0,-77.0,0,0.512,836.0,71.8,17
1776020,14208702044,79.0,73.0,-75.0,0,0.508,836.0,71.8,17
1776021,14208710047,80.0,75.0,-73.0,0,0.503,836.0,71.8,17
1776022,14208718043,80.0,76.0,-72.0,0,0.486,836.0,71.8,17
1776023,14208726044,84.0,78.0,-70.0,0,0.497,836.0,71.8,17
1776024,14208734047,84.0,79.0,-68.0,0,0.492,836.0,71.8,17
1776025,14208742043,90.0,82.0,-65.0,0,0.501,836.0,71.8,17
1776026,14208750043,93.0,85.0,-63.0,0,0.481,836.0,71.8,17
1776027,14208758047,94.0,87.0,-60.0,0,0.49,836.0,71.8,17
1776028,14208766043,96.0,89.0,-58.0,0,0.47,836.0,71.8,17
1776029,14208774043,96.0,91.0,-56.0,0,0.465,836.0,71.8,17
1776030,14208782044,101.0,93.0,-53.0,0,0.475,836.0,71.8,17
1776031,14208790043,102.0,95.0,-51.0,0,0.454,836.0,71.8,17
1776032,14208798046,100.0,97.0,-48.0,0,0.464,836.0,71.8,17
1776033,14208806046,105.0,99.0,-46.0,0,0.443,836.0,71.8,17
1776034,14208814046,104.0,100.0,-44.0,0,0.439,836.0,71.8,17
1776035,14208822046,107.0,102.0,-42.0,0,0.434,836.0,71.8,17
1776036,14208830047,111.0,104.0,-40.0,0,0.43,836.0,71.8,17
1776037,14208838046,109.0,105.0,-38.0,0,0.425,836.0,71.8,17
1776038,14208846047,114.0,107.0,-36.0,0,0.421,836.0,71.8,17
1776039,14208854047,113.0,109.0,-34.0,0,0.416,836.0,71.8,17
1776040,14208862045,113.0,110.0,-32.0,0,0.411,836.0,71.8,17
1776041,14208870046,119.0,112.0,-30.0,0,0.407,836.0,71.8,17
1776042,14208878043,116.0,113.0,-29.0,0,0.388,836.0,71.8,17
1776043,14208886045,120.0,115.0,-27.0,0,0.4,836.0,71.8,17
1776044,14208894043,120.0,116.0,-25.0,0,0.395,836.0,71.8,17
1776045,14208902047,118.0,116.0,-24.0,0,0.376,836.0,71.8,17
1776046,14208910043,124.0,118.0,-22.0,0,0.388,836.0,71.8,17
1776047,14208918046,120.0,119.0,-21.0,0,0.368,836.0,71.8,17
1776048,14208926043,124.0,120.0,-20.0,0,0.365,836.0,71.8,17
1776049,14208934047,124.0,121.0,-19.0,0,0.362,836.0,71.8,17
1776050,14208942047,123.0,121.0,-18.0,0,0.359,836.0,71.8,17
1776051,14208950043,126.0,123.0,-16.0,0,0.37,836.0,71.8,17
1776052,14208958045,127.0,124.0,-15.0,0,0.35,836.0,71.8,17
1776053,14208966045,125.0,124.0,-14.0,0,0.347,836.0,71.8,17
1776054,14208974043,131.0,126.0,-13.0,0,0.344,836.0,71.8,17
1776055,14208982043,132.0,127.0,-12.0,0,0.34,836.0,71.8,17
1776056,14208990047,142.0,131.0,-10.0,0,0.352,836.0,71.8,17
1776057,14208998043,151.0,136.0,-7.0,0,0.363,836.0,71.8,17
1776058,14209006045,159.0,141.0,-4.0,0,0.37,836.0,71.8,17
1776059,14209014043,173.0,149.0,1.0,0,0.418,836.0,71.8,17
1776060,14209022046,188.0,158.0,7.0,0,0.45,836.0,71.8,17
1776061,14209030043,203.0,169.0,14.0,0,0.485,836.0,71.8,17
1776062,14209038043,218.0,181.0,23.0,0,0.539,836.0,71.8,17
1776063,14209046043,234.0,194.0,33.0,0,0.579,836.0,71.8,17
1776064,14209054045,252.0,208.0,43.0,0,0.604,836.0,71.8,17
1776065,14209062046,263.0,221.0,55.0,0,0.659,836.0,71.8,17
1776066,14209070047,279.0,235.0,67.0,0,0.688,836.0,71.8,17
1776067,14209078043,289.0,248.0,79.0,0,0.715,836.0,71.8,17
1776068,14209086046,302.0,261.0,91.0,0,0.741,836.0,71.8,17
1776069,14209094043,308.0,273.0,102.0,0,0.75,836.0,71.8,17
1776070,14209102043,314.0,283.0,113.0,0,0.77,836.0,71.8,17
1776071,14209110045,316.0,291.0,123.0,0,0.773,836.0,71.8,17
1776072,14209118043,322.0,298.0,132.0,0,0.772,836.0,71.8,17
1776073,14209126045,320.0,304.0,140.0,0,0.766,836.0,71.8,17
1776074,14209134044,322.0,308.0,146.0,0,0.739,836.0,71.8,17
1776075,14209142044,320.0,311.0,151.0,0,0.725,836.0,71.8,17
1776076,14209150043,316.0,312.0,155.0,0,0.71,836.0,71.8,17
1776077,14209158045,311.0,312.0,157.0,0,0.673,836.0,71.8,17
1776078,14209166043,307.0,311.0,158.0,0,0.655,836.0,71.8,17
1776079,14209174046,298.0,308.0,157.0,1,0.652,836.0,71.8,17
1776080,14209182043,292.0,304.0,156.0,0,0.649,836.0,71.8,17
1776081,14209190045,283.0,299.0,153.0,0,0.68,836.0,71.8,17
1776082,14209198047,274.0,293.0,148.0,0,0.71,836.0,71.8,17
1776083,14209206045,260.0,285.0,143.0,0,0.701,836.0,71.8,17
1776084,14209214047,248.0,276.0,136.0,0,0.725,836.0,71.8,17
1776085,14209222046,238.0,267.0,129.0,0,0.711,836.0,71.8,17
1776086,14209230043,227.0,257.0,120.0,0,0.726,836.0,71.8,17
1776087,14209238045,204.0,244.0,111.0,0,0.708,836.0,71.8,17
1776088,14209246043,204.0,234.0,101.0,0,0.7,836.0,71.8,17
1776089,14209254043,192.0,224.0,90.0,0,0.689,836.0,71.8,17
1776090,14209262045,180.0,213.0,80.0,0,0.652,836.0,71.8,17
1776091,14209270047,172.0,203.0,70.0,0,0.628,836.0,71.8,17
1776092,14209278046,164.0,194.0,59.0,0,0.615,836.0,71.8,17
1776093,14209286047,160.0,186.0,50.0,0,0.565,836.0,71.8,17
1776094,14209294047,148.0,177.0,40.0,0,0.556,836.0,71.8,17
1776095,14209302045,146.0,169.0,31.0,0,0.52,836.0,71.8,17
1776096,14209310047,141.0,162.0,23.0,0,0.487,836.0,71.8,17
1776097,14209318047,135.0,156.0,15.0,0,0.469,836.0,71.8,17
1776098,14209326046,132.0,150.0,8.0,0,0.438,836.0,71.8,17
1776099,14209334046,126.0,144.0,1.0,0,0.446,836.0,71.8,17
1776100,14209342043,121.0,139.0,-5.0,0,0.442,836.0,71.8,17
1776101,14209350047,117.0,133.0,-11.0,0,0.455,836.0,71.8,17
1776102,14209358043,112.0,128.0,-17.0,0,0.469,836.0,71.8,17
1776103,14209366046,111.0,124.0,-22.0,0,0.463,836.0,71.8,17
1776104,14209374047,108.0,120.0,-27.0,0,0.475,836.0,71.8,17
1776105,14209382047,102.0,116.0,-32.0,0,0.487,836.0,71.8,17
1776106,14209390047,100.0,112.0,-36.0,0,0.479,836.0,71.8,17
1776107,14209398045,96.0,108.0,-40.0,0,0.489,836.0,71.8,17
1776108,14209406043,92.0,104.0,-44.0,0,0.499,836.0,71.8,17
1776109,14209414047,92.0,101.0,-47.0,0,0.488,836.0,71.8,17
1776110,14209422046,89.0,98.0,-51.0,0,0.516,836.0,71.8,17
1776111,14209430047,89.0,96.0,-54.0,0,0.505,836.0,71.8,17
1776112,14209438043,86.0,94.0,-56.0,0,0.493,836.0,71.8,17
1776113,14209446043,86.0,92.0,-58.0,0,0.498,836.0,71.8,17
1776114,14209454043,84.0,90.0,-60.0,0,0.502,836.0,71.8,17
1776115,14209462043,86.0,89.0,-62.0,0,0.507,836.0,71.8,17
1776116,14209470043,86.0,88.0,-63.0,0,0.492,836.0,71.8,17
1776117,14209478043,80.0,86.0,-65.0,0,0.514,836.0,71.8,17
1776118,14209486043,81.0,85.0,-66.0,0,0.499,836.0,71.8,17
1776119,14209494047,80.0,84.0,-67.0,0,0.501,836.0,71.8,17
1776120,14209502043,79.0,83.0,-68.0,0,0.503,836.0,71.8,17
1776121,14209510047,81.0,82.0,-68.0,1,0.486,836.0,71.8,17
1776122,14209518045,79.0,81.0,-69.0,0,0.505,836.0,71.8,17
1776123,14209526046,72.0,79.0,-70.0,0,0.507,836.0,71.8,17
1776124,14209534043,80.0,79.0,-70.0,1,0.49,836.0,71.8,17
1776125,14209542043,77.0,79.0,-71.0,0,0.508,836.0,71.8,17
1776126,14209550043,82.0,80.0,-70.0,1,0.505,836.0,71.8,17
1776127,14209558045,81.0,80.0,-70.0,1,0.489,836.0,71.8,17
1776128,14209566043,81.0,80.0,-70.0,0,0.488,836.0,71.8,17
1776129,14209574043,80.0,80.0,-69.0,0,0.502,836.0,71.8,17
1776130,14209582043,82.0,81.0,-69.0,1,0.485,836.0,71.8,17
1776131,14209590043,84.0,81.0,-68.0,0,0.498,836.0,71.8,17
1776132,14209598043,86.0,83.0,-67.0,0,0.496,836.0,71.8,17
1776133,14209606046,87.0,84.0,-66.0,0,0.493,836.0,71.8,17
1776134,14209614043,84.0,84.0,-65.0,0,0.49,836.0,71.8,17
1776135,14209622043,85.0,84.0,-64.0,0,0.487,836.0,71.8,17
1776136,14209630044,90.0,85.0,-63.0,0,0.484,836.0,71.8,17
1776137,14209638046,88.0,86.0,-62.0,0,0.482,836.0,71.8,17
1776138,14209646043,90.0,87.0,-61.0,0,0.479,836.0,71.8,17
1776139,14209654045,93.0,88.0,-59.0,0,0.491,836.0,71.8,17
1776140,14209662043,93.0,90.0,-58.0,0,0.471,836.0,71.8,17
1776141,14209670043,96.0,91.0,-56.0,0,0.483,836.0,71.8,17
1776142,14209678043,97.0,93.0,-55.0,0,0.463,836.0,71.8,17
1776143,14209686047,101.0,95.0,-53.0,0,0.475,836.0,71.8,17
1776144,14209694043,98.0,95.0,-51.0,0,0.47,836.0,71.8,17
1776145,14209702043,101.0,97.0,-50.0,0,0.45,836.0,71.8,17
1776146,14209710046,102.0,98.0,-48.0,0,0.462,836.0,71.8,17
1776147,14209718047,100.0,99.0,-47.0,0,0.442,836.0,71.8,17
1776148,14209726043,107.0,101.0,-45.0,0,0.455,836.0,71.8,17
1776149,14209734044,104.0,101.0,-44.0,0,0.435,836.0,71.8,17
1776150,14209742046,108.0,103.0,-42.0,0,0.447,836.0,71.8,17
1776151,14209750043,106.0,104.0,-41.0,0,0.427,836.0,71.8,17
1776152,14209758045,112.0,106.0,-39.0,0,0.439,836.0,71.8,17
1776153,14209766046,109.0,107.0,-37.0,0,0.434,836.0,71.8,17
1776154,14209774047,113.0,108.0,-36.0,0,0.414,836.0,71.8,17
1776155,14209782043,114.0,110.0,-34.0,0,0.426,836.0,71.8,17
1776156,14209790043,107.0,109.0,-33.0,0,0.405,836.0,71.8,17
1776157,14209798044,115.0,110.0,-32.0,0,0.402,836.0,71.8,17
1776158,14209806043,113.0,111.0,-31.0,0,0.399,836.0,71.8,17
1776159,14209814047,118.0,113.0,-30.0,0,0.396,836.0,71.8,17
1776160,14209822043,116.0,114.0,-28.0,0,0.41,836.0,71.8,17
1776161,14209830043,116.0,114.0,-27.0,0,0.387,836.0,71.8,17
1776162,14209838046,117.0,115.0,-26.0,0,0.384,836.0,71.8,17
1776163,14209846043,123.0,117.0,-25.0,0,0.381,836.0,71.8,17
1776164,14209854043,119.0,117.0,-24.0,0,0.377,836.0,71.8,17
1776165,14209862045,120.0,118.0,-23.0,0,0.374,836.0,71.8,17
1776166,14209870046,123.0,119.0,-22.0,0,0.37,836.0,71.8,17
1776167,14209878043,127.0,121.0,-20.0,0,0.384,836.0,71.8,17
1776168,14209886043,134.0,124.0,-18.0,0,0.378,836.0,71.8,17
1776169,14209894043,140.0,128.0,-16.0,0,0.372,836.0,71.8,17
1776170,14209902047,146.0,132.0,-13.0,0,0.384,836.0,71.8,17
1776171,14209910046,159.0,139.0,-9.0,0,0.393,836.0,71.8,17
1776172,14209918044,169.0,146.0,-4.0,0,0.417,836.0,71.8,17
1776173,14209926043,183.0,155.0,2.0,0,0.452,836.0,71.8,17
1776174,14209934043,197.0,165.0,9.0,0,0.49,836.0,71.8,17
1776175,14209942043,212.0,177.0,18.0,0,0.548,836.0,71.8,17
1776176,14209950046,231.0,190.0,27.0,0,0.574,836.0,71.8,17
1776177,14209958043,244.0,203.0,38.0,0,0.632,836.0,71.8,17
1776178,14209966046,258.0,216.0,49.0,0,0.664,836.0,71.8,17
1776179,14209974043,271.0,230.0,60.0,0,0.694,836.0,71.8,17
1776180,14209982043,280.0,242.0,72.0,0,0.737,836.0,71.8,17
1776181,14209990043,291.0,254.0,83.0,0,0.752,836.0,71.8,17
1776182,14209998046,300.0,265.0,95.0,0,0.789,836.0,71.8,17
1776183,14210006043,304.0,274.0,105.0,0,0.784,836.0,71.8,17
1776184,14210014045,308.0,283.0,115.0,0,0.802,836.0,71.8,17
1776185,14210022043,309.0,289.0,123.0,0,0.784,836.0,71.8,17
1776186,14210030047,307.0,293.0,130.0,0,0.776,836.0,71.8,17
1776187,14210038046,308.0,297.0,135.0,0,0.743,836.0,71.8,17
1776188,14210046043,306.0,299.0,140.0,0,0.748,836.0,71.8,17
1776189,14210054043,303.0,300.0,143.0,0,0.709,836.0,71.8,17
1776190,14210062043,297.0,299.0,145.0,0,0.689,836.0,71.8,17
1776191,14210070043,290.0,297.0,145.0,1,0.647,836.0,71.8,17
1776192,14210078044,279.0,293.0,144.0,0,0.663,836.0,71.8,17
1776193,14210086045,276.0,289.0,141.0,0,0.7,836.0,71.8,17
1776194,14210094045,266.0,283.0,138.0,0,0.694,836.0,71.8,17
1776195,14210102046,255.0,276.0,133.0,0,0.728,836.0,71.8,17
1776196,14210110047,246.0,269.0,128.0,0,0.718,836.0,71.8,17
1776197,14210118044,233.0,260.0,121.0,0,0.744,836.0,71.8,17
1776198,14210126043,220.0,250.0,113.0,0,0.746,836.0,71.8,17
1776199,14210134043,211.0,241.0,105.0,0,0.728,836.0,71.8,17
1776200,14210142045,198.0,231.0,96.0,0,0.724,836.0,71.8,17
1776201,14210150045,191.0,221.0,86.0,0,0.714,836.0,71.8,17
1776202,14210158043,179.0,211.0,76.0,0,0.688,836.0,71.8,17
1776203,14210166047,172.0,201.0,67.0,0,0.65,836.0,71.8,17
1776204,14210174047,164.0,192.0,57.0,0,0.637,836.0,71.8,17
1776205,14210182047,155.0,183.0,48.0,0,0.599,836.0,71.8,17
1776206,14210190045,148.0,175.0,38.0,0,0.586,836.0,71.8,17
1776207,14210198046,140.0,166.0,29.0,0,0.547,836.0,71.8,17
1776208,14210206047,139.0,160.0,21.0,0,0.511,836.0,71.8,17
1776209,14210214045,135.0,154.0,13.0,0,0.49,836.0,71.8,17
1776210,14210222045,130.0,148.0,6.0,0,0.456,836.0,71.8,17
1776211,14210230049,125.0,142.0,0.0,0,0.439,836.0,71.8,17
1776212,14210238043,120.0,137.0,-6.0,0,0.453,836.0,71.8,17
1776213,14210246043,117.0,132.0,-12.0,0,0.468,836.0,71.8,17
1776214,14210254047,119.0,129.0,-17.0,0,0.462,836.0,71.8,17
1776215,14210262046,122.0,127.0,-21.0,0,0.452,836.0,71.8,17
1776216,14210270043,116.0,125.0,-25.0,0,0.463,836.0,71.8,17
1776217,14210278045,111.0,121.0,-28.0,0,0.451,836.0,71.8,17
1776218,14210286043,108.0,118.0,-31.0,0,0.46,836.0,71.8,17
1776219,14210294043,108.0,116.0,-34.0,0,0.469,836.0,71.8,17
1776220,14210302047,105.0,113.0,-37.0,0,0.477,836.0,71.8,17
1776221,14210310045,102.0,110.0,-40.0,0,0.486,836.0,71.8,17
1776222,14210318046,97.0,107.0,-43.0,0,0.495,836.0,71.8,17
1776223,14210326043,101.0,106.0,-45.0,0,0.481,836.0,71.8,17
1776224,14210334043,96.0,103.0,-47.0,0,0.486,836.0,71.8,17
1776225,14210342046,96.0,102.0,-49.0,0,0.492,836.0,71.8,17
1776226,14210350047,92.0,99.0,-51.0,0,0.498,836.0,71.8,17
1776227,14210358047,89.0,97.0,-53.0,0,0.504,836.0,71.8,17
1776228,14210366043,88.0,95.0,-55.0,0,0.509,836.0,71.8,17
1776229,14210374046,87.0,93.0,-57.0,0,0.515,836.0,71.8,17
1776230,14210382043,84.0,91.0,-58.0,0,0.498,836.0,71.8,17
1776231,14210390043,87.0,90.0,-60.0,0,0.523,836.0,71.8,17
1776232,14210398043,83.0,88.0,-61.0,0,0.507,836.0,71.8,17
1776233,14210406046,84.0,87.0,-62.0,0,0.509,836.0,71.8,17
1776234,14210414043,83.0,86.0,-63.0,0,0.512,836.0,71.8,17
1776235,14210422047,81.0,85.0,-64.0,0,0.514,836.0,71.8,17
1776236,14210430043,84.0,85.0,-65.0,0,0.517,836.0,71.8,17
1776237,14210438047,82.0,84.0,-65.0,1,0.498,836.0,71.8,17
1776238,14210446043,84.0,84.0,-65.0,0,0.498,836.0,71.8,17
1776239,14210454046,84.0,84.0,-65.0,0,0.498,836.0,71.8,17
1776240,14210462043,83.0,84.0,-65.0,0,0.497,836.0,71.8,17
1776241,14210470043,87.0,85.0,-65.0,0,0.497,836.0,71.8,17
1776242,14210478043,85.0,85.0,-65.0,0,0.497,836.0,71.8,17
1776243,14210486047,86.0,85.0,-64.0,0,0.513,836.0,71.8,17
1776244,14210494044,85.0,85.0,-64.0,1,0.494,836.0,71.8,17
1776245,14210502043,87.0,85.0,-63.0,0,0.509,836.0,71.8,17
1776246,14210510043,88.0,86.0,-62.0,0,0.506,836.0,71.8,17
1776247,14210518043,86.0,86.0,-62.0,1,0.487,836.0,71.8,17
1776248,14210526043,84.0,86.0,-61.0,0,0.503,836.0,71.8,17
1776249,14210534043,88.0,86.0,-61.0,1,0.484,836.0,71.8,17
1776250,14210542047,88.0,87.0,-60.0,0,0.5,836.0,71.8,17
1776251,14210550043,88.0,87.0,-59.0,0,0.497,836.0,71.8,17
1776252,14210558043,87.0,87.0,-59.0,1,0.478,836.0,71.8,17
1776253,14210566043,90.0,88.0,-58.0,0,0.493,836.0,71.8,17
1776254,14210574043,88.0,88.0,-57.0,0,0.49,836.0,71.8,17
1776255,14210582043,91.0,89.0,-57.0,1,0.471,836.0,71.8,17
1776256,14210590043,92.0,89.0,-56.0,0,0.487,836.0,71.8,17
1776257,14210598043,93.0,90.0,-55.0,0,0.483,836.0,71.8,17
1776258,14210606043,97.0,92.0,-53.0,0,0.497,836.0,71.8,17
1776259,14210614047,99.0,94.0,-52.0,0,0.475,836.0,71.8,17
1776260,14210622043,101.0,95.0,-50.0,0,0.489,836.0,71.8,17
1776261,14210630045,100.0,97.0,-49.0,0,0.466,836.0,71.8,17
1776262,14210638043,100.0,97.0,-47.0,0,0.48,836.0,71.8,17
1776263,14210646043,108.0,100.0,-45.0,0,0.474,836.0,71.8,17
1776264,14210654043,115.0,104.0,-43.0,0,0.468,836.0,71.8,17
1776265,14210662045,110.0,105.0,-41.0,0,0.463,836.0,71.8,17
1776266,14210670043,112.0,107.0,-38.0,0,0.475,836.0,71.8,17
1776267,14210678046,109.0,107.0,-37.0,0,0.432,836.0,71.8,17
1776268,14210686047,116.0,109.0,-35.0,0,0.446,836.0,71.8,17
1776269,14210694043,116.0,111.0,-33.0,0,0.44,836.0,71.8,17
1776270,14210702047,117.0,112.0,-31.0,0,0.434,836.0,71.8,17
1776271,14210710043,118.0,114.0,-29.0,0,0.429,836.0,71.8,17
1776272,14210718043,121.0,116.0,-28.0,0,0.405,836.0,71.8,17
1776273,14210726047,118.0,116.0,-26.0,0,0.42,836.0,71.8,17
1776274,14210734047,117.0,116.0,-25.0,0,0.396,836.0,71.8,17
1776275,14210742043,118.0,117.0,-24.0,0,0.393,836.0,71.8,17
1776276,14210750046,124.0,119.0,-23.0,0,0.39,836.0,71.8,17
1776277,14210758046,123.0,120.0,-22.0,0,0.386,836.0,71.8,17
1776278,14210766047,125.0,121.0,-20.0,0,0.402,836.0,71.8,17
1776279,14210774043,124.0,122.0,-19.0,0,0.377,836.0,71.8,17
1776280,14210782045,127.0,123.0,-18.0,0,0.373,836.0,71.8,17
1776281,14210790046,135.0,126.0,-16.0,0,0.389,836.0,71.8,17
1776282,14210798043,141.0,130.0,-14.0,0,0.382,836.0,71.8,17
1776283,14210806044,149.0,134.0,-11.0,0,0.396,836.0,71.8,17
1776284,14210814047,160.0,140.0,-7.0,0,0.407,836.0,71.8,17
1776285,14210822047,171.0,148.0,-2.0,0,0.429,836.0,71.8,17
1776286,14210830044,185.0,157.0,4.0,0,0.468,836.0,71.8,17
1776287,14210838045,197.0,167.0,11.0,0,0.508,836.0,71.8,17
1776288,14210846043,217.0,179.0,19.0,0,0.551,836.0,71.8,17
1776289,14210854043,230.0,191.0,29.0,0,0.613,836.0,71.8,17
1776290,14210862046,244.0,204.0,39.0,0,0.646,836.0,71.8,17
1776291,14210870043,260.0,218.0,50.0,0,0.693,836.0,71.8,17
1776292,14210878046,273.0,231.0,62.0,0,0.741,836.0,71.8,17
1776293,14210886047,292.0,246.0,74.0,0,0.775,836.0,71.8,17
1776294,14210894043,300.0,259.0,86.0,0,0.806,836.0,71.8,17
1776295,14210902043,304.0,270.0,98.0,0,0.833,836.0,71.8,17
1776296,14210910044,316.0,281.0,109.0,0,0.843,836.0,71.8,17
1776297,14210918043,320.0,290.0,120.0,0,0.861,836.0,71.8,17
1776298,14210926047,324.0,299.0,129.0,0,0.846,836.0,71.8,17
1776299,14210934045,324.0,305.0,138.0,0,0.857,836.0,71.8,17
1776300,14210942047,323.0,309.0,144.0,0,0.808,836.0,71.8,17
1776301,14210950043,322.0,312.0,150.0,0,0.814,836.0,71.8,17
1776302,14210958045,318.0,314.0,154.0,0,0.773,836.0,71.8,17
1776303,14210966045,315.0,314.0,157.0,0,0.751,836.0,71.8,17
1776304,14210974047,308.0,313.0,158.0,0,0.705,836.0,71.8,17
1776305,14210982046,298.0,309.0,157.0,1,0.702,836.0,71.8,17
1776306,14210990043,289.0,304.0,155.0,0,0.722,836.0,71.8,17
1776307,14210998043,281.0,299.0,152.0,0,0.741,836.0,71.8,17
1776308,14211006043,268.0,291.0,147.0,0,0.78,836.0,71.8,17
1776309,14211014045,259.0,283.0,141.0,0,0.793,836.0,71.8,17
1776310,14211022047,244.0,274.0,134.0,0,0.803,836.0,71.8,17
1776311,14211030045,235.0,264.0,126.0,0,0.807,836.0,71.8,17
1776312,14211038044,220.0,254.0,117.0,0,0.805,836.0,71.8,17
1776313,14211046045,209.0,243.0,108.0,0,0.786,836.0,71.8,17
1776314,14211054046,196.0,231.0,97.0,0,0.787,836.0,71.8,17
1776315,14211062043,187.0,221.0,87.0,0,0.749,836.0,71.8,17
1776316,14211070046,177.0,210.0,76.0,0,0.732,836.0,71.8,17
1776317,14211078043,166.0,199.0,65.0,0,0.7,836.0,71.8,17
1776318,14211086046,158.0,189.0,55.0,0,0.658,836.0,71.8,17
1776319,14211094044,148.0,179.0,44.0,0,0.638,836.0,71.8,17
1776320,14211102043,144.0,171.0,34.0,0,0.596,836.0,71.8,17
1776321,14211110047,144.0,164.0,25.0,0,0.555,836.0,71.8,17
1776322,14211118044,132.0,156.0,17.0,0,0.516,836.0,71.8,17
1776323,14211126043,127.0,149.0,9.0,0,0.494,836.0,71.8,17
1776324,14211134043,127.0,144.0,1.0,0,0.483,836.0,71.8,17
1776325,14211142047,116.0,137.0,-6.0,0,0.483,836.0,71.8,17
1776326,14211150047,117.0,132.0,-12.0,0,0.479,836.0,71.8,17
1776327,14211158045,117.0,129.0,-18.0,0,0.496,836.0,71.8,17
1776328,14211166044,115.0,125.0,-23.0,0,0.49,836.0,71.8,17
1776329,14211174046,112.0,122.0,-27.0,0,0.48,836.0,71.8,17
1776330,14211182046,110.0,119.0,-31.0,0,0.492,836.0,71.8,17
1776331,14211190044,110.0,117.0,-34.0,0,0.479,836.0,71.8,17
1776332,14211198047,108.0,115.0,-37.0,0,0.489,836.0,71.8,17
1776333,14211206045,110.0,114.0,-39.0,0,0.474,836.0,71.8,17
1776334,14211214047,104.0,111.0,-42.0,0,0.505,836.0,71.8,17
1776335,14211222043,104.0,110.0,-44.0,0,0.489,836.0,71.8,17
1776336,14211230043,100.0,107.0,-46.0,0,0.496,836.0,71.8,17
1776337,14211238046,96.0,104.0,-48.0,0,0.502,836.0,71.8,17
1776338,14211246046,98.0,103.0,-50.0,0,0.508,836.0,71.8,17
1776339,14211254046,94.0,101.0,-51.0,0,0.491,836.0,71.8,17
1776340,14211262044,92.0,99.0,-53.0,0,0.518,836.0,71.8,17
1776341,14211270043,93.0,97.0,-55.0,0,0.524,836.0,71.8,17
1776342,14211278043,88.0,95.0,-56.0,0,0.506,836.0,71.8,17
1776343,14211286043,88.0,93.0,-58.0,0,0.533,836.0,71.8,17
1776344,14211294043,88.0,92.0,-59.0,0,0.515,836.0,71.8,17
1776345,14211302043,84.0,90.0,-61.0,0,0.542,836.0,71.8,17
1776346,14211310043,81.0,88.0,-62.0,0,0.524,836.0,71.8,17
1776347,14211318047,83.0,87.0,-63.0,0,0.526,836.0,71.8,17
1776348,14211326043,85.0,86.0,-64.0,0,0.529,836.0,71.8,17
1776349,14211334043,83.0,85.0,-65.0,0,0.532,836.0,71.8,17
1776350,14211342044,82.0,85.0,-66.0,0,0.534,836.0,71.8,17
1776351,14211350047,85.0,85.0,-66.0,1,0.514,836.0,71.8,17
1776352,14211358043,82.0,84.0,-66.0,0,0.514,836.0,71.8,17
1776353,14211366047,84.0,84.0,-66.0,0,0.514,836.0,71.8,17
1776354,14211374044,81.0,83.0,-67.0,0,0.536,836.0,71.8,17
1776355,14211382043,82.0,83.0,-67.0,1,0.516,836.0,71.8,17
1776356,14211390043,87.0,84.0,-66.0,0,0.533,836.0,71.8,17
1776357,14211398043,88.0,85.0,-66.0,1,0.512,836.0,71.8,17
1776358,14211406043,87.0,85.0,-65.0,0,0.529,836.0,71.8,17
1776359,14211414043,86.0,86.0,-64.0,0,0.526,836.0,71.8,17
1776360,14211422043,91.0,87.0,-63.0,0,0.523,836.0,71.8,17
1776361,14211430047,93.0,88.0,-62.0,0,0.519,836.0,71.8,17
1776362,14211438043,91.0,89.0,-61.0,0,0.516,836.0,71.8,17
1776363,14211446043,93.0,90.0,-60.0,0,0.513,849.6,71.8,1
1776364,14211454044,92.0,90.0,-59.0,0,0.51,849.6,71.8,1
1776365,14211462044,93.0,91.0,-57.0,0,0.525,849.6,71.8,1
1776366,14211470043,95.0,92.0,-56.0,0,0.5,849.6,71.8,1
1776367,14211478043,93.0,92.0,-55.0,0,0.497,849.6,71.8,1
1776368,14211486043,96.0,93.0,-54.0,0,0.494,849.6,71.8,1
1776369,14211494043,96.0,94.0,-53.0,0,0.491,849.6,71.8,1
1776370,14211502043,102.0,96.0,-52.0,0,0.487,849.6,71.8,1
1776371,14211510043,104.0,98.0,-50.0,0,0.502,849.6,71.8,1
1776372,14211518043,105.0,100.0,-48.0,0,0.496,849.6,71.8,1
1776373,14211526045,105.0,101.0,-47.0,0,0.472,849.6,71.8,1
1776374,14211534043,106.0,102.0,-45.0,0,0.487,849.6,71.8,1
1776375,14211542046,105.0,103.0,-44.0,0,0.462,849.6,71.8,1
1776376,14211550045,108.0,104.0,-42.0,0,0.477,849.6,71.8,1
1776377,14211558045,109.0,105.0,-41.0,0,0.453,849.6,71.8,1
1776378,14211566043,112.0,107.0,-39.0,0,0.468,849.6,71.8,1
1776379,14211574043,110.0,108.0,-38.0,0,0.443,849.6,71.8,1
1776380,14211582043,115.0,109.0,-36.0,0,0.459,849.6,71.8,1
1776381,14211590043,116.0,111.0,-34.0,0,0.452,849.6,71.8,1
1776382,14211598043,119.0,113.0,-33.0,0,0.428,849.6,71.8,1
