host_read_start_ns,host_read_end_ns,read_duration_ms,bytes_read,decoded_message_count,sample_count,first_sample_seq,last_sample_seq,first_sample_t_us,last_sample_t_us,serial_in_waiting,protocol_ok_frames,crc_errors,format_errors,resync_count,sample_seq_gaps
87221359000000,87221890000000,531.0,4096,66,66,1774385,1774450,14195622043,14196142043,71,66,0,0,0,0
87221906000000,87222406000000,500.0,4096,66,64,1774451,1774514,14196150043,14196654044,119,132,0,0,0,0
87222421000000,87222921000000,500.0,4096,66,65,1774515,1774579,14196662043,14197174043,105,198,0,0,0,0
87222937000000,87223453000000,516.0,4096,65,65,1774580,1774644,14197182043,14197694043,120,263,0,0,0,0
87223468000000,87223968000000,500.0,4096,66,65,1774645,1774709,14197702045,14198214044,118,329,0,0,0,0
87223984000000,87224484000000,500.0,4096,65,65,1774710,1774774,14198222043,14198734047,85,394,0,0,0,0
87224500000000,87225000000000,500.0,4096,66,65,1774775,1774839,14198742047,14199254046,32,460,0,0,0,0
87225015000000,87225531000000,516.0,4096,66,65,1774840,1774904,14199262043,14199774046,43,526,0,0,0,0
87225531000000,87226046000000,515.0,4096,65,65,1774905,1774969,14199782043,14200294043,43,591,0,0,0,0
87226046000000,87226562000000,516.0,4096,66,65,1774970,1775034,14200302043,14200814043,88,657,0,0,0,0
87226578000000,87227093000000,515.0,4096,66,65,1775035,1775099,14200822043,14201334043,48,723,0,0,0,0
87227093000000,87227609000000,516.0,4096,66,65,1775100,1775164,14201342043,14201854043,58,789,0,0,0,0
87227609000000,87228125000000,516.0,4096,66,65,1775165,1775229,14201862043,14202374043,37,855,0,0,0,0
87228125000000,87228640000000,515.0,4096,66,65,1775230,1775294,14202382043,14202894043,151,921,0,0,0,0
87228656000000,87229171000000,515.0,4096,67,66,1775295,1775360,14202902043,14203422044,104,988,0,0,0,0
87229187000000,87229703000000,516.0,4096,67,66,1775361,1775426,14203430043,14203950043,132,1055,0,0,0,0
87229718000000,87230234000000,516.0,4096,66,66,1775427,1775492,14203958046,14204478043,186,1121,0,0,0,0
87230265000000,87230750000000,485.0,4096,67,66,1775493,1775558,14204486046,14205006043,110,1188,0,0,0,0
87230765000000,87231281000000,516.0,4096,66,66,1775559,1775624,14205014046,14205534043,85,1254,0,0,0,0
87231296000000,87231812000000,516.0,4096,67,66,1775625,1775690,14205542043,14206062046,197,1321,0,0,0,0
87231843000000,87232328000000,485.0,4096,66,65,1775691,1775755,14206070043,14206582047,165,1387,0,0,0,0
87232343000000,87232859000000,516.0,4096,67,66,1775756,1775821,14206590043,14207110043,116,1454,0,0,0,0
87232875000000,87233375000000,500.0,4096,66,65,1775822,1775886,14207118043,14207630047,106,1520,0,0,0,0
87233390000000,87233906000000,516.0,4096,66,65,1775887,1775951,14207638043,14208150047,146,1586,0,0,0,0
87233921000000,87234437000000,516.0,4096,66,66,1775952,1776017,14208158044,14208678043,104,1652,0,0,0,0
87234453000000,87234953000000,500.0,4096,66,65,1776018,1776082,14208686043,14209198047,113,1718,0,0,0,0
87234968000000,87235484000000,516.0,4096,67,67,1776083,1776149,14209206045,14209734044,212,1785,0,0,0,0
87235515000000,87236000000000,485.0,4096,65,64,1776150,1776213,14209742046,14210246043,135,1850,0,0,0,0
87236015000000,87236531000000,516.0,4096,67,66,1776214,1776279,14210254047,14210774043,203,1917,0,0,0,0
87236546000000,87237046000000,500.0,4096,65,65,1776280,1776344,14210782045,14211294043,124,1982,0,0,0,0
87237062000000,87237578000000,516.0,4096,68,66,1776345,1776410,14211302043,14211822043,156,2050,0,0,0,0
87237593000000,87238109000000,516.0,4096,68,67,1776411,1776477,14211830047,14212358047,176,2118,0,0,0,0
87238140000000,87238640000000,500.0,4096,66,66,1776478,1776543,14212366043,14212886044,208,2184,0,0,0,0
87238671000000,87239171000000,500.0,4096,67,66,1776544,1776609,14212894047,14213414043,221,2251,0,0,0,0
87239203000000,87239703000000,500.0,4096,68,67,1776610,1776676,14213422045,14213950043,295,2319,0,0,0,0
87239734000000,87240234000000,500.0,4096,67,67,1776677,1776743,14213958043,14214486044,117,2386,0,0,0,0
87240250000000,87240765000000,515.0,4096,67,66,1776744,1776809,14214494043,14215014046,148,2453,0,0,0,0
87240781000000,87241296000000,515.0,4096,67,67,1776810,1776876,14215022045,14215550043,139,2520,0,0,0,0
87241328000000,87241828000000,500.0,4096,67,66,1776877,1776942,14215558043,14216078046,290,2587,0,0,0,0
87241875000000,87242359000000,484.0,4096,68,66,1776943,1777008,14216086043,14216606044,152,2655,0,0,0,0
87242375000000,87242890000000,515.0,4096,67,67,1777009,1777075,14216614045,14217142043,95,2722,0,0,0,0
87242906000000,87243421000000,515.0,4096,66,65,1777076,1777140,14217150043,14217662044,269,2788,0,0,0,0
87243453000000,87243937000000,484.0,4096,66,66,1777141,1777206,14217670043,14218190046,303,2854,0,0,0,0
87243968000000,87244468000000,500.0,4096,66,65,1777207,1777271,14218198043,14218710047,128,2920,0,0,0,0
87244484000000,87244984000000,500.0,4096,67,66,1777272,1777337,14218718043,14219238043,134,2987,0,0,0,0
87245000000000,87245515000000,515.0,4096,65,65,1777338,1777402,14219246046,14219758043,171,3052,0,0,0,0
87245531000000,87246046000000,515.0,4096,67,66,1777403,1777468,14219766043,14220286046,188,3119,0,0,0,0
87246062000000,87246562000000,500.0,4096,66,65,1777469,1777533,14220294047,14220806047,237,3185,0,0,0,0
87246578000000,87247093000000,515.0,4096,67,67,1777534,1777600,14220814044,14221342047,164,3252,0,0,0,0
87247109000000,87247625000000,516.0,4096,67,66,1777601,1777666,14221350043,14221870044,135,3319,0,0,0,0
87247640000000,87248156000000,516.0,4096,67,66,1777667,1777732,14221878047,14222398047,122,3386,0,0,0,0
87248171000000,87248671000000,500.0,4096,67,65,1777733,1777797,14222406047,14222918046,225,3453,0,0,0,0
87248703000000,87249203000000,500.0,4096,67,67,1777798,1777864,14222926044,14223454043,102,3520,0,0,0,0
87249218000000,87249734000000,516.0,4096,68,67,1777865,1777931,14223462046,14223990043,241,3588,0,0,0,0
87249765000000,87250265000000,500.0,4096,66,66,1777932,1777997,14223998044,14224518044,345,3654,0,0,0,0
87250312000000,87250796000000,484.0,4096,68,67,1777998,1778064,14224526046,14225054046,97,3722,0,0,0,0
87250812000000,87251328000000,516.0,4096,67,66,1778065,1778130,14225062043,14225582044,169,3789,0,0,0,0
87251359000000,87251875000000,516.0,4096,67,67,1778131,1778197,14225590043,14226118043,164,3856,0,0,0,0
87251890000000,87252390000000,500.0,4096,68,66,1778198,1778263,14226126045,14226646045,263,3924,0,0,0,0
87252437000000,87252937000000,500.0,4096,67,67,1778264,1778330,14226654045,14227182047,165,3991,0,0,0,0
87252953000000,87253468000000,515.0,4096,68,67,1778331,1778397,14227190046,14227718043,145,4059,0,0,0,0
87253484000000,87254015000000,531.0,4096,67,67,1778398,1778464,14227726043,14228254043,149,4126,0,0,0,0
87254031000000,87254531000000,500.0,4096,66,65,1778465,1778529,14228262043,14228774043,145,4192,0,0,0,0
87254546000000,87255046000000,500.0,4096,66,65,1778530,1778594,14228782043,14229294043,99,4258,0,0,0,0
87255062000000,87255578000000,516.0,4096,66,66,1778595,1778660,14229302047,14229822045,189,4324,0,0,0,0
87255593000000,87256093000000,500.0,4096,66,65,1778661,1778725,14229830046,14230342047,200,4390,0,0,0,0
87256125000000,87256609000000,484.0,4096,65,65,1778726,1778790,14230350043,14230862043,215,4455,0,0,0,0
87256640000000,87257140000000,500.0,4096,66,65,1778791,1778855,14230870043,14231382046,137,4521,0,0,0,0
87257156000000,87257656000000,500.0,4096,67,65,1778856,1778920,14231390043,14231902047,215,4588,0,0,0,0
87257687000000,87258187000000,500.0,4096,66,66,1778921,1778986,14231910046,14232430043,301,4654,0,0,0,0
87258218000000,87258703000000,485.0,4096,66,65,1778987,1779051,14232438043,14232950043,145,4720,0,0,0,0
87258718000000,87259234000000,516.0,4096,67,67,1779052,1779118,14232958044,14233486043,174,4787,0,0,0,0
87259265000000,87259765000000,500.0,4096,67,66,1779119,1779184,14233494047,14234014043,141,4854,0,0,0,0
87259781000000,87260296000000,515.0,4096,66,66,1779185,1779250,14234022046,14234542043,201,4920,0,0,0,0
87260328000000,87260828000000,500.0,4096,68,67,1779251,1779317,14234550043,14235078046,160,4988,0,0,0,0
87260843000000,87261359000000,516.0,4096,67,67,1779318,1779384,14235086044,14235614043,159,5055,0,0,0,0
87261390000000,87261890000000,500.0,4096,67,66,1779385,1779450,14235622043,14236142043,157,5122,0,0,0,0
87261921000000,87262421000000,500.0,4096,68,66,1779451,1779516,14236150043,14236670043,279,5190,0,0,0,0
87262453000000,87262953000000,500.0,4096,67,67,1779517,1779583,14236678047,14237206043,154,5257,0,0,0,0
87262968000000,87263484000000,516.0,4096,67,66,1779584,1779649,14237214044,14237734043,134,5324,0,0,0,0
87263500000000,87264015000000,515.0,4096,67,66,1779650,1779715,14237742043,14238262046,127,5391,0,0,0,0
87264031000000,87264546000000,515.0,4096,67,67,1779716,1779782,14238270043,14238798043,180,5458,0,0,0,0
87264578000000,87265078000000,500.0,4096,67,66,1779783,1779848,14238806043,14239326043,254,5525,0,0,0,0
87265109000000,87265609000000,500.0,4096,67,67,1779849,1779915,14239334043,14239862043,228,5592,0,0,0,0
87265640000000,87266140000000,500.0,4096,67,66,1779916,1779981,14239870043,14240390043,194,5659,0,0,0,0
87266171000000,87266671000000,500.0,4096,67,66,1779982,1780047,14240398043,14240918043,278,5726,0,0,0,0
87266703000000,87267203000000,500.0,4096,66,66,1780048,1780113,14240926043,14241446047,220,5792,0,0,0,0
87267234000000,87267734000000,500.0,4096,68,66,1780114,1780179,14241454043,14241974043,249,5860,0,0,0,0
87267765000000,87268265000000,500.0,4096,68,67,1780180,1780246,14241982045,14242510044,231,5928,0,0,0,0
87268296000000,87268781000000,485.0,4096,67,66,1780247,1780312,14242518047,14243038043,258,5995,0,0,0,0
87268828000000,87269312000000,484.0,4096,67,66,1780313,1780378,14243046043,14243566043,251,6062,0,0,0,0
87269359000000,87269859000000,500.0,4096,67,67,1780379,1780445,14243574043,14244102047,149,6129,0,0,0,0
87269875000000,87270390000000,515.0,4096,68,67,1780446,1780512,14244110043,14244638043,144,6197,0,0,0,0
87270406000000,87270921000000,515.0,4096,67,66,1780513,1780578,14244646043,14245166043,123,6264,0,0,0,0
87270937000000,87271453000000,516.0,4096,67,67,1780579,1780645,14245174047,14245702043,818,6331,0,0,0,0
87271562000000,87271984000000,422.0,4096,68,67,1780646,1780712,14245710043,14246238043,165,6399,0,0,0,0
87272015000000,87272515000000,500.0,4096,67,66,1780713,1780778,14246246043,14246766043,237,6466,0,0,0,0
87272546000000,87273046000000,500.0,4096,68,67,1780779,1780845,14246774043,14247302046,191,6534,0,0,0,0
87273078000000,87273578000000,500.0,4096,67,66,1780846,1780911,14247310043,14247830044,133,6601,0,0,0,0
87273593000000,87274109000000,516.0,4096,66,66,1780912,1780977,14247838047,14248358043,166,6667,0,0,0,0
87274140000000,87274640000000,500.0,4096,67,66,1780978,1781043,14248366046,14248886047,207,6734,0,0,0,0
87274671000000,87275171000000,500.0,4096,67,67,1781044,1781110,14248894046,14249422043,106,6801,0,0,0,0
87275187000000,87275703000000,516.0,4096,67,66,1781111,1781176,14249430044,14249950045,248,6868,0,0,0,0
87275734000000,87276234000000,500.0,4096,67,66,1781177,1781242,14249958047,14250478046,229,6935,0,0,0,0
87276265000000,87276765000000,500.0,4096,67,67,1781243,1781309,14250486043,14251014043,256,7002,0,0,0,0
87276796000000,87277296000000,500.0,4096,67,66,1781310,1781375,14251022043,14251542043,158,7069,0,0,0,0
87277312000000,87277828000000,516.0,4096,67,66,1781376,1781441,14251550043,14252070043,143,7136,0,0,0,0
87277828000000,87278343000000,515.0,4096,66,65,1781442,1781506,14252078043,14252590045,261,7202,0,0,0,0
87278375000000,87278859000000,484.0,4096,66,65,1781507,1781571,14252598043,14253110043,221,7268,0,0,0,0
87278890000000,87279390000000,500.0,4096,67,67,1781572,1781638,14253118043,14253646043,124,7335,0,0,0,0
87279406000000,87279921000000,515.0,4096,66,65,1781639,1781703,14253654047,14254166044,273,7401,0,0,0,0
87279953000000,87280437000000,484.0,4096,67,66,1781704,1781769,14254174047,14254694047,108,7468,0,0,0,0
87280453000000,87280968000000,515.0,4096,66,66,1781770,1781835,14254702043,14255222043,242,7534,0,0,0,0
87281000000000,87281500000000,500.0,4096,66,65,1781836,1781900,14255230043,14255742046,178,7600,0,0,0,0
87281515000000,87282031000000,516.0,4096,66,66,1781901,1781966,14255750046,14256270043,116,7666,0,0,0,0
87282046000000,87282546000000,500.0,4096,67,65,1781967,1782031,14256278043,14256790047,170,7733,0,0,0,0
87282562000000,87283062000000,500.0,4096,66,65,1782032,1782096,14256798043,14257310045,165,7799,0,0,0,0
87283078000000,87283593000000,515.0,4096,66,66,1782097,1782162,14257318043,14257838043,173,7865,0,0,0,0
87283609000000,87284125000000,516.0,4096,67,66,1782163,1782228,14257846043,14258366044,136,7932,0,0,0,0
87284140000000,87284656000000,516.0,4096,67,67,1782229,1782295,14258374047,14258902043,257,7999,0,0,0,0
87284687000000,87285187000000,500.0,4096,68,67,1782296,1782362,14258910043,14259438043,130,8067,0,0,0,0
87285203000000,87285718000000,515.0,4096,67,66,1782363,1782428,14259446043,14259966043,118,8134,0,0,0,0
87285734000000,87286250000000,516.0,4096,67,67,1782429,1782495,14259974043,14260502047,159,8201,0,0,0,0
87286265000000,87286781000000,516.0,4096,67,66,1782496,1782561,14260510045,14261030047,251,8268,0,0,0,0
87286812000000,87287328000000,516.0,4096,67,67,1782562,1782628,14261038043,14261566043,100,8335,0,0,0,0
87287328000000,87287843000000,515.0,4096,68,66,1782629,1782694,14261574043,14262094043,329,8403,0,0,0,0
87287890000000,87288375000000,485.0,4096,68,66,1782695,1782760,14262102043,14262622043,110,8471,0,0,0,0
87288390000000,87288906000000,516.0,4096,67,67,1782761,1782827,14262630045,14263158043,280,8538,0,0,0,0
87288937000000,87289437000000,500.0,4096,67,66,1782828,1782893,14263166043,14263686043,196,8605,0,0,0,0
87289468000000,87289984000000,516.0,4096,68,67,1782894,1782960,14263694044,14264222043,167,8673,0,0,0,0
87290000000000,87290515000000,515.0,4096,67,67,1782961,1783027,14264230044,14264758043,203,8740,0,0,0,0
87290531000000,87291046000000,515.0,4096,67,66,1783028,1783093,14264766043,14265286045,235,8807,0,0,0,0
87291078000000,87291578000000,500.0,4096,68,67,1783094,1783160,14265294047,14265822045,865,8875,0,0,0,0
87291687000000,87292109000000,422.0,4096,66,66,1783161,1783226,14265830044,14266350047,129,8941,0,0,0,0
87292125000000,87292640000000,515.0,4096,69,67,1783227,1783293,14266358043,14266886043,180,9010,0,0,0,0
87292656000000,87293171000000,515.0,4096,67,66,1783294,1783359,14266894044,14267414043,231,9077,0,0,0,0
87293187000000,87293718000000,531.0,4096,67,67,1783360,1783426,14267422043,14267950043,308,9144,0,0,0,0
87293734000000,87294234000000,500.0,4096,67,66,1783427,1783492,14267958043,14268478047,145,9211,0,0,0,0
87294250000000,87294765000000,515.0,4096,67,66,1783493,1783558,14268486047,14269006044,251,9278,0,0,0,0
87294796000000,87295296000000,500.0,4096,67,67,1783559,1783625,14269014043,14269542043,144,9345,0,0,0,0
87295312000000,87295828000000,516.0,4096,68,67,1783626,1783692,14269550047,14270078045,252,9413,0,0,0,0
87295859000000,87296359000000,500.0,4096,66,66,1783693,1783758,14270086043,14270606043,231,9479,0,0,0,0
87296390000000,87296890000000,500.0,4096,68,67,1783759,1783825,14270614043,14271142047,223,9547,0,0,0,0
87296921000000,87297421000000,500.0,4096,67,65,1783826,1783890,14271150046,14271662045,166,9614,0,0,0,0
87297437000000,87297953000000,516.0,4096,67,67,1783891,1783957,14271670043,14272198043,111,9681,0,0,0,0
87297968000000,87298484000000,516.0,4096,67,66,1783958,1784023,14272206043,14272726043,155,9748,0,0,0,0
87298500000000,87299015000000,515.0,4096,67,67,1784024,1784090,14272734045,14273262043,202,9815,0,0,0,0
87299031000000,87299546000000,515.0,4096,67,66,1784091,1784156,14273270044,14273790044,205,9882,0,0,0,0
87299578000000,87300062000000,484.0,4096,67,66,1784157,1784222,14273798043,14274318043,213,9949,0,0,0,0
87300093000000,87300609000000,516.0,4096,67,67,1784223,1784289,14274326047,14274854046,218,10016,0,0,0,0
87300640000000,87301140000000,500.0,4096,68,67,1784290,1784356,14274862043,14275390044,109,10084,0,0,0,0
87301156000000,87301671000000,515.0,4096,66,66,1784357,1784422,14275398043,14275918045,311,10150,0,0,0,0
87301703000000,87302203000000,500.0,4096,68,67,1784423,1784489,14275926047,14276454044,222,10218,0,0,0,0
87302234000000,87302734000000,500.0,4096,68,66,1784490,1784555,14276462045,14276982043,178,10286,0,0,0,0
87302750000000,87303265000000,515.0,4096,66,66,1784556,1784621,14276990043,14277510047,130,10352,0,0,0,0
87303281000000,87303796000000,515.0,4096,68,67,1784622,1784688,14277518046,14278046043,150,10420,0,0,0,0
87303812000000,87304328000000,516.0,4096,67,67,1784689,1784755,14278054043,14278582043,254,10487,0,0,0,0
87304359000000,87304859000000,500.0,4096,67,66,1784756,1784821,14278590043,14279110043,216,10554,0,0,0,0
87304890000000,87305390000000,500.0,4096,67,66,1784822,1784887,14279118044,14279638044,192,10621,0,0,0,0
87305421000000,87305921000000,500.0,4096,67,67,1784888,1784954,14279646043,14280174043,154,10688,0,0,0,0
87305953000000,87306453000000,500.0,4096,68,67,1784955,1785021,14280182043,14280710043,176,10756,0,0,0,0
87306484000000,87307000000000,516.0,4096,66,66,1785022,1785087,14280718043,14281238043,264,10822,0,0,0,0
87307015000000,87307515000000,500.0,4096,68,66,1785088,1785153,14281246043,14281766047,144,10890,0,0,0,0
87307546000000,87308046000000,500.0,4096,67,66,1785154,1785219,14281774043,14282294044,125,10957,0,0,0,0
87308062000000,87308578000000,516.0,4096,68,67,1785220,1785286,14282302044,14282830044,278,11025,0,0,0,0
87308609000000,87309109000000,500.0,4096,67,66,1785287,1785352,14282838043,14283358043,200,11092,0,0,0,0
87309140000000,87309640000000,500.0,4096,67,67,1785353,1785419,14283366043,14283894043,201,11159,0,0,0,0
87309671000000,87310171000000,500.0,4096,67,66,1785420,1785485,14283902043,14284422043,158,11226,0,0,0,0
87310203000000,87310703000000,500.0,4096,67,66,1785486,1785551,14284430047,14284950047,123,11293,0,0,0,0
87310718000000,87311250000000,532.0,4096,68,68,1785552,1785619,14284958043,14285494047,278,11361,0,0,0,0
87311281000000,87311765000000,484.0,4096,67,66,1785620,1785685,14285502043,14286022043,957,11428,0,0,0,0
87311906000000,87312296000000,390.0,4096,66,66,1785686,1785751,14286030043,14286550043,102,11494,0,0,0,0
87312328000000,87312828000000,500.0,4096,68,66,1785752,1785817,14286558046,14287078043,161,11562,0,0,0,0
87312859000000,87313359000000,500.0,4096,67,66,1785818,1785883,14287086044,14287606046,143,11629,0,0,0,0
87313375000000,87313890000000,515.0,4096,67,67,1785884,1785950,14287614045,14288142043,133,11696,0,0,0,0
87313921000000,87314421000000,500.0,4096,67,66,1785951,1786016,14288150047,14288670046,253,11763,0,0,0,0
87314453000000,87314953000000,500.0,4096,67,67,1786017,1786083,14288678043,14289206043,501,11830,0,0,0,0
87315031000000,87315500000000,469.0,4096,68,67,1786084,1786150,14289214045,14289742043,180,11898,0,0,0,0
87315515000000,87316031000000,516.0,4096,67,67,1786151,1786217,14289750043,14290278043,218,11965,0,0,0,0
87316046000000,87316562000000,516.0,4096,67,66,1786218,1786283,14290286046,14290806043,199,12032,0,0,0,0
87316578000000,87317093000000,515.0,4096,68,67,1786284,1786350,14290814046,14291342045,168,12100,0,0,0,0
87317109000000,87317625000000,516.0,4096,67,66,1786351,1786416,14291350043,14291870043,164,12167,0,0,0,0
87317640000000,87318156000000,516.0,4096,68,67,1786417,1786483,14291878043,14292406043,186,12235,0,0,0,0
87318187000000,87318687000000,500.0,4096,67,66,1786484,1786549,14292414043,14292934046,155,12302,0,0,0,0
87318703000000,87319218000000,515.0,4096,67,67,1786550,1786616,14292942045,14293470044,142,12369,0,0,0,0
87319234000000,87319750000000,516.0,4096,67,66,1786617,1786682,14293478044,14293998043,347,12436,0,0,0,0
87319796000000,87320281000000,485.0,4096,67,67,1786683,1786749,14294006043,14294534047,296,12503,0,0,0,0
87320328000000,87320828000000,500.0,4096,68,67,1786750,1786816,14294542045,14295070044,153,12571,0,0,0,0
87320843000000,87321343000000,500.0,4096,67,66,1786817,1786882,14295078047,14295598043,273,12638,0,0,0,0
87321390000000,87321875000000,485.0,4096,67,67,1786883,1786949,14295606043,14296134043,248,12705,0,0,0,0
87321906000000,87322406000000,500.0,4096,67,65,1786950,1787014,14296142047,14296654044,197,12772,0,0,0,0
87322437000000,87322937000000,500.0,4096,67,66,1787015,1787080,14296662043,14297182046,207,12839,0,0,0,0
87322968000000,87323484000000,516.0,4096,68,68,1787081,1787148,14297190046,14297726045,147,12907,0,0,0,0
87323500000000,87324000000000,500.0,4096,66,65,1787149,1787213,14297734045,14298246043,160,12973,0,0,0,0
87324015000000,87324546000000,531.0,4096,68,68,1787214,1787281,14298254046,14298790047,195,13041,0,0,0,0
87324562000000,87325078000000,516.0,4096,67,66,1787282,1787347,14298798045,14299318043,105,13108,0,0,0,0
87325093000000,87325593000000,500.0,4096,67,66,1787348,1787413,14299326044,14299846044,262,13175,0,0,0,0
87325640000000,87326140000000,500.0,4096,67,67,1787414,1787480,14299854043,14300382047,184,13242,0,0,0,0
87326156000000,87326671000000,515.0,4096,68,67,1787481,1787547,14300390043,14300918043,269,13310,0,0,0,0
87326703000000,87327203000000,500.0,4096,67,67,1787548,1787614,14300926043,14301454043,177,13377,0,0,0,0
87327234000000,87327734000000,500.0,4096,67,65,1787615,1787679,14301462043,14301974047,134,13444,0,0,0,0
87327750000000,87328250000000,500.0,4096,67,66,1787680,1787745,14301982044,14302502043,189,13511,0,0,0,0
87328281000000,87328796000000,515.0,4096,68,67,1787746,1787812,14302510043,14303038045,295,13579,0,0,0,0
87328828000000,87329312000000,484.0,4096,66,65,1787813,1787877,14303046044,14303558045,122,13645,0,0,0,0
87329328000000,87329859000000,531.0,4096,68,68,1787878,1787945,14303566047,14304102043,193,13713,0,0,0,0
87329875000000,87330390000000,515.0,4096,67,66,1787946,1788011,14304110043,14304630043,140,13780,0,0,0,0
87330406000000,87330921000000,515.0,4096,67,67,1788012,1788078,14304638043,14305166045,192,13847,0,0,0,0
87330953000000,87331453000000,500.0,4096,68,67,1788079,1788145,14305174047,14305702043,206,13915,0,0,0,0
87331484000000,87331984000000,500.0,4096,67,66,1788146,1788211,14305710046,14306230047,851,13982,0,0,0,0
87332093000000,87332515000000,422.0,4096,68,67,1788212,1788278,14306238043,14306766043,168,14050,0,0,0,0
87332531000000,87333046000000,515.0,4096,68,67,1788279,1788345,14306774043,14307302043,184,14118,0,0,0,0
87333078000000,87333578000000,500.0,4096,66,66,1788346,1788411,14307310043,14307830044,223,14184,0,0,0,0
87333609000000,87334109000000,500.0,4096,68,67,1788412,1788478,14307838044,14308366044,237,14252,0,0,0,0
87334156000000,87334656000000,500.0,4096,67,66,1788479,1788544,14308374045,14308894046,185,14319,0,0,0,0
87334671000000,87335187000000,516.0,4096,67,67,1788545,1788611,14308902043,14309430043,281,14386,0,0,0,0
87335218000000,87335718000000,500.0,4096,67,66,1788612,1788677,14309438045,14309958043,158,14453,0,0,0,0
87335734000000,87336234000000,500.0,4096,67,66,1788678,1788743,14309966043,14310486043,118,14520,0,0,0,0
87336250000000,87336781000000,531.0,4096,67,67,1788744,1788810,14310494043,14311022046,287,14587,0,0,0,0
87336812000000,87337312000000,500.0,4096,67,66,1788811,1788876,14311030043,14311550043,268,14654,0,0,0,0
87337343000000,87337843000000,500.0,4096,68,67,1788877,1788943,14311558043,14312086043,172,14722,0,0,0,0
87337859000000,87338359000000,500.0,4096,66,65,1788944,1789008,14312094043,14312606043,177,14788,0,0,0,0
87338375000000,87338890000000,515.0,4096,66,66,1789009,1789074,14312614043,14313134043,175,14854,0,0,0,0
87338906000000,87339406000000,500.0,4096,66,65,1789075,1789139,14313142047,14313654047,260,14920,0,0,0,0
87339437000000,87339921000000,484.0,4096,66,65,1789140,1789204,14313662047,14314174044,271,14986,0,0,0,0
87339968000000,87340453000000,485.0,4096,66,66,1789205,1789270,14314182043,14314702044,161,15052,0,0,0,0
87340484000000,87340984000000,500.0,4096,66,65,1789271,1789335,14314710043,14315222044,171,15118,0,0,0,0
87341000000000,87341515000000,515.0,4096,67,67,1789336,1789402,14315230043,14315758044,137,15185,0,0,0,0
87341531000000,87342031000000,500.0,4096,66,65,1789403,1789467,14315766043,14316278047,229,15251,0,0,0,0
87342062000000,87342546000000,484.0,4096,66,64,1789468,1789531,14316286043,14316790043,139,15317,0,0,0,0
87342562000000,87343078000000,516.0,4096,66,66,1789532,1789597,14316798047,14317318043,308,15383,0,0,0,0
87343109000000,87343593000000,484.0,4096,66,65,1789598,1789662,14317326045,14317838046,162,15449,0,0,0,0
87343609000000,87344125000000,516.0,4096,67,67,1789663,1789729,14317846044,14318374046,234,15516,0,0,0,0
87344156000000,87344640000000,484.0,4096,66,65,1789730,1789794,14318382043,14318894046,155,15582,0,0,0,0
87344671000000,87345171000000,500.0,4096,66,65,1789795,1789859,14318902043,14319414043,213,15648,0,0,0,0
87345203000000,87345718000000,515.0,4096,68,68,1789860,1789927,14319422043,14319958043,191,15716,0,0,0,0
87345734000000,87346234000000,500.0,4096,67,66,1789928,1789993,14319966044,14320486043,193,15783,0,0,0,0
87346265000000,87346781000000,516.0,4096,68,68,1789994,1790061,14320494046,14321030047,274,15851,0,0,0,0
87346812000000,87347312000000,500.0,4096,68,67,1790062,1790128,14321038047,14321566043,271,15919,0,0,0,0
87347359000000,87347843000000,484.0,4096,67,66,1790129,1790194,14321574043,14322094043,270,15986,0,0,0,0
87347890000000,87348375000000,485.0,4096,68,66,1790195,1790260,14322102043,14322622043,197,16054,0,0,0,0
87348390000000,87348906000000,516.0,4096,67,66,1790261,1790326,14322630047,14323150043,182,16121,0,0,0,0
87348937000000,87349437000000,500.0,4096,67,67,1790327,1790393,14323158043,14323686043,169,16188,0,0,0,0
87349468000000,87349968000000,500.0,4096,68,67,1790394,1790460,14323694043,14324222043,251,16256,0,0,0,0
87350015000000,87350500000000,485.0,4096,66,66,1790461,1790526,14324230043,14324750043,163,16322,0,0,0,0
87350531000000,87351031000000,500.0,4096,68,67,1790527,1790593,14324758043,14325286047,145,16390,0,0,0,0
87351062000000,87351562000000,500.0,4096,67,66,1790594,1790659,14325294047,14325814044,239,16457,0,0,0,0
87351593000000,87352093000000,500.0,4096,67,67,1790660,1790726,14325822044,14326350043,168,16524,0,0,0,0
87352125000000,87352625000000,500.0,4096,68,66,1790727,1790792,14326358043,14326878043,938,16592,0,0,0,0
87352750000000,87353171000000,421.0,4096,67,67,1790793,1790859,14326886045,14327414043,256,16659,0,0,0,0
87353187000000,87353687000000,500.0,4096,67,66,1790860,1790925,14327422046,14327942044,171,16726,0,0,0,0
87353718000000,87354218000000,500.0,4096,67,66,1790926,1790991,14327950043,14328470045,313,16793,0,0,0,0
87354265000000,87354750000000,485.0,4096,67,67,1790992,1791058,14328478044,14329006043,192,16860,0,0,0,0
87354781000000,87355296000000,515.0,4096,68,67,1791059,1791125,14329014043,14329542043,177,16928,0,0,0,0
87355312000000,87355828000000,516.0,4096,67,66,1791126,1791191,14329550043,14330070044,300,16995,0,0,0,0
87355859000000,87356359000000,500.0,4096,67,67,1791192,1791258,14330078044,14330606043,259,17062,0,0,0,0
87356390000000,87356890000000,500.0,4096,68,67,1791259,1791325,14330614047,14331142043,309,17130,0,0,0,0
87356921000000,87357421000000,500.0,4096,67,66,1791326,1791391,14331150043,14331670043,192,17197,0,0,0,0
87357437000000,87357953000000,516.0,4096,67,66,1791392,1791457,14331678044,14332198043,233,17264,0,0,0,0
87357984000000,87358484000000,500.0,4096,67,66,1791458,1791523,14332206043,14332726043,265,17331,0,0,0,0
87358515000000,87359015000000,500.0,4096,67,67,1791524,1791590,14332734045,14333262043,294,17398,0,0,0,0
87359046000000,87359546000000,500.0,4096,68,67,1791591,1791657,14333270045,14333798044,203,17466,0,0,0,0
87359578000000,87360078000000,500.0,4096,67,66,1791658,1791723,14333806043,14334326047,256,17533,0,0,0,0
87360109000000,87360609000000,500.0,4096,67,67,1791724,1791790,14334334044,14334862043,139,17600,0,0,0,0
87360640000000,87361140000000,500.0,4096,67,66,1791791,1791856,14334870045,14335390046,161,17667,0,0,0,0
87361156000000,87361671000000,515.0,4096,66,66,1791857,1791922,14335398047,14335918047,299,17733,0,0,0,0
87361718000000,87362187000000,469.0,4096,66,65,1791923,1791987,14335926043,14336438045,130,17799,0,0,0,0
87362203000000,87362703000000,500.0,4096,67,65,1791988,1792052,14336446046,14336958046,185,17866,0,0,0,0
87362734000000,87363234000000,500.0,4096,66,66,1792053,1792118,14336966045,14337486046,142,17932,0,0,0,0
87363265000000,87363765000000,500.0,4096,67,66,1792119,1792184,14337494043,14338014043,239,17999,0,0,0,0
87363796000000,87364281000000,485.0,4096,66,65,1792185,1792249,14338022045,14338534045,203,18065,0,0,0,0
87364312000000,87364812000000,500.0,4096,66,66,1792250,1792315,14338542043,14339062047,169,18131,0,0,0,0
87364828000000,87365343000000,515.0,4096,67,66,1792316,1792381,14339070043,14339590045,159,18198,0,0,0,0
87365359000000,87365875000000,516.0,4096,67,67,1792382,1792448,14339598043,14340126043,259,18265,0,0,0,0
87365906000000,87366406000000,500.0,4096,67,66,1792449,1792514,14340134044,14340654043,413,18332,0,0,0,0
87366468000000,87366937000000,469.0,4096,67,66,1792515,1792580,14340662043,14341182046,186,18399,0,0,0,0
87366968000000,87367468000000,500.0,4096,68,67,1792581,1792647,14341190043,14341718043,132,18467,0,0,0,0
87367484000000,87368000000000,516.0,4096,68,67,1792648,1792714,14341726043,14342254043,267,18535,0,0,0,0
87368046000000,87368531000000,485.0,4096,67,66,1792715,1792780,14342262043,14342782043,208,18602,0,0,0,0
87368546000000,87369062000000,516.0,4096,67,66,1792781,1792846,14342790043,14343310043,301,18669,0,0,0,0
87369109000000,87369593000000,484.0,4096,68,67,1792847,1792913,14343318045,14343846043,237,18737,0,0,0,0
87369625000000,87370125000000,500.0,4096,66,66,1792914,1792979,14343854046,14344374043,172,18803,0,0,0,0
87370156000000,87370656000000,500.0,4096,68,67,1792980,1793046,14344382043,14344910045,157,18871,0,0,0,0
87370687000000,87371187000000,500.0,4096,67,66,1793047,1793112,14344918043,14345438043,243,18938,0,0,0,0
87371218000000,87371734000000,516.0,4096,67,67,1793113,1793179,14345446043,14345974043,178,19005,0,0,0,0
87371750000000,87372265000000,515.0,4096,68,67,1793180,1793246,14345982043,14346510043,234,19073,0,0,0,0
87372296000000,87372796000000,500.0,4096,67,66,1793247,1793312,14346518043,14347038046,138,19140,0,0,0,0
87372812000000,87373328000000,516.0,4096,68,67,1793313,1793379,14347046043,14347574044,1077,19208,0,0,0,0
87373468000000,87373859000000,391.0,4096,67,66,1793380,1793445,14347582043,14348102043,266,19275,0,0,0,0
87373890000000,87374390000000,500.0,4096,67,67,1793446,1793512,14348110043,14348638045,270,19342,0,0,0,0
87374421000000,87374921000000,500.0,4096,67,66,1793513,1793578,14348646045,14349166043,315,19409,0,0,0,0
87374968000000,87375453000000,485.0,4096,67,67,1793579,1793645,14349174046,14349702043,243,19476,0,0,0,0
87375484000000,87375984000000,500.0,4096,67,66,1793646,1793711,14349710043,14350230043,125,19543,0,0,0,0
87376000000000,87376515000000,515.0,4096,68,67,1793712,1793778,14350238043,14350766044,242,19611,0,0,0,0
87376546000000,87377046000000,500.0,4096,67,67,1793779,1793845,14350774043,14351302045,173,19678,0,0,0,0
87377078000000,87377578000000,500.0,4096,68,66,1793846,1793911,14351310045,14351830044,131,19746,0,0,0,0
87377593000000,87378109000000,516.0,4096,67,66,1793912,1793977,14351838043,14352358046,631,19813,0,0,0,0
87378187000000,87378640000000,453.0,4096,67,67,1793978,1794044,14352366043,14352894043,186,19880,0,0,0,0
87378671000000,87379187000000,516.0,4096,68,67,1794045,1794111,14352902043,14353430045,171,19948,0,0,0,0
87379203000000,87379718000000,515.0,4096,67,67,1794112,1794178,14353438043,14353966046,256,20015,0,0,0,0
87379750000000,87380250000000,500.0,4096,67,66,1794179,1794244,14353974043,14354494043,139,20082,0,0,0,0
87380265000000,87380781000000,516.0,4096,67,66,1794245,1794310,14354502046,14355022043,160,20149,0,0,0,0
87380796000000,87381312000000,516.0,4096,67,67,1794311,1794377,14355030043,14355558043,299,20216,0,0,0,0
87381359000000,87381843000000,484.0,4096,68,67,1794378,1794444,14355566043,14356094043,215,20284,0,0,0,0
87381875000000,87382375000000,500.0,4096,67,65,1794445,1794509,14356102047,14356614044,226,20351,0,0,0,0
87382406000000,87382906000000,500.0,4096,67,67,1794510,1794576,14356622045,14357150043,265,20418,0,0,0,0
87382937000000,87383437000000,500.0,4096,68,67,1794577,1794643,14357158046,14357686044,167,20486,0,0,0,0
87383453000000,87383968000000,515.0,4096,67,66,1794644,1794709,14357694043,14358214043,244,20553,0,0,0,0
87384000000000,87384500000000,500.0,4096,67,67,1794710,1794776,14358222043,14358750043,127,20620,0,0,0,0
87384515000000,87385031000000,516.0,4096,68,67,1794777,1794843,14358758044,14359286043,200,20688,0,0,0,0
87385062000000,87385562000000,500.0,4096,67,66,1794844,1794909,14359294047,14359814043,287,20755,0,0,0,0
87385609000000,87386093000000,484.0,4096,67,67,1794910,1794976,14359822043,14360350043,171,20822,0,0,0,0
87386125000000,87386640000000,515.0,4096,67,66,1794977,1795042,14360358043,14360878046,309,20889,0,0,0,0
87386671000000,87387171000000,500.0,4096,67,67,1795043,1795109,14360886045,14361414043,202,20956,0,0,0,0
87387187000000,87387687000000,500.0,4096,68,66,1795110,1795175,14361422044,14361942044,191,21024,0,0,0,0
87387718000000,87388218000000,500.0,4096,67,66,1795176,1795241,14361950043,14362470043,334,21091,0,0,0,0
87388265000000,87388750000000,485.0,4096,67,66,1795242,1795307,14362478043,14362998047,232,21158,0,0,0,0
87388781000000,87389281000000,500.0,4096,68,67,1795308,1795374,14363006043,14363534046,309,21226,0,0,0,0
87389328000000,87389812000000,484.0,4096,67,66,1795375,1795440,14363542043,14364062045,264,21293,0,0,0,0
87389859000000,87390359000000,500.0,4096,67,67,1795441,1795507,14364070046,14364598047,201,21360,0,0,0,0
87390375000000,87390890000000,515.0,4096,68,67,1795508,1795574,14364606045,14365134043,304,21428,0,0,0,0
87390921000000,87391406000000,485.0,4096,66,66,1795575,1795640,14365142043,14365662043,157,21494,0,0,0,0
87391437000000,87391937000000,500.0,4096,67,66,1795641,1795706,14365670043,14366190044,212,21561,0,0,0,0
87391968000000,87392468000000,500.0,4096,68,66,1795707,1795772,14366198043,14366718044,174,21629,0,0,0,0
87392484000000,87393000000000,516.0,4096,67,67,1795773,1795839,14366726047,14367254043,212,21696,0,0,0,0
87393031000000,87393531000000,500.0,4096,67,66,1795840,1795905,14367262043,14367782043,1012,21763,0,0,0,0
87393656000000,87394062000000,406.0,4096,66,65,1795906,1795970,14367790043,14368302044,157,21829,0,0,0,0
87394078000000,87394593000000,515.0,4096,67,67,1795971,1796037,14368310046,14368838043,194,21896,0,0,0,0
87394625000000,87395125000000,500.0,4096,68,67,1796038,1796104,14368846044,14369374043,162,21964,0,0,0,0
87395156000000,87395656000000,500.0,4096,67,67,1796105,1796171,14369382043,14369910043,225,22031,0,0,0,0
87395687000000,87396187000000,500.0,4096,67,66,1796172,1796237,14369918045,14370438043,335,22098,0,0,0,0
87396234000000,87396718000000,484.0,4096,67,66,1796238,1796303,14370446043,14370966047,318,22165,0,0,0,0
87396765000000,87397265000000,500.0,4096,68,68,1796304,1796371,14370974043,14371510043,304,22233,0,0,0,0
87397296000000,87397781000000,485.0,4096,67,65,1796372,1796436,14371518043,14372030043,247,22300,0,0,0,0
87397812000000,87398296000000,484.0,4096,66,65,1796437,1796501,14372038046,14372550043,235,22366,0,0,0,0
87398328000000,87398828000000,500.0,4096,66,66,1796502,1796567,14372558046,14373078047,208,22432,0,0,0,0
87398859000000,87399359000000,500.0,4096,66,65,1796568,1796632,14373086044,14373598045,228,22498,0,0,0,0
87399375000000,87399875000000,500.0,4096,66,65,1796633,1796697,14373606043,14374118047,282,22564,0,0,0,0
87399906000000,87400406000000,500.0,4096,66,66,1796698,1796763,14374126043,14374646043,195,22630,0,0,0,0
87400421000000,87400921000000,500.0,4096,67,66,1796764,1796829,14374654043,14375174043,153,22697,0,0,0,0
87400937000000,87401437000000,500.0,4096,66,65,1796830,1796894,14375182046,14375694046,222,22763,0,0,0,0
87401468000000,87401984000000,516.0,4096,66,66,1796895,1796960,14375702043,14376222045,357,22829,0,0,0,0
87402015000000,87402500000000,485.0,4096,67,65,1796961,1797025,14376230043,14376742047,364,22896,0,0,0,0
87402546000000,87403031000000,485.0,4096,68,67,1797026,1797092,14376750043,14377278043,190,22964,0,0,0,0
87403062000000,87403562000000,500.0,4096,68,67,1797093,1797159,14377286043,14377814043,294,23032,0,0,0,0
87403609000000,87404109000000,500.0,4096,67,67,1797160,1797226,14377822043,14378350044,232,23099,0,0,0,0
87404125000000,87404640000000,515.0,4096,68,67,1797227,1797293,14378358044,14378886044,189,23167,0,0,0,0
87404671000000,87405171000000,500.0,4096,68,67,1797294,1797360,14378894044,14379422045,236,23235,0,0,0,0
87405203000000,87405703000000,500.0,4096,67,67,1797361,1797427,14379430047,14379958043,205,23302,0,0,0,0
87405734000000,87406234000000,500.0,4096,67,66,1797428,1797493,14379966044,14380486043,234,23369,0,0,0,0
87406265000000,87406765000000,500.0,4096,67,66,1797494,1797559,14380494043,14381014044,236,23436,0,0,0,0
87406796000000,87407312000000,516.0,4096,68,68,1797560,1797627,14381022043,14381558047,238,23504,0,0,0,0
87407343000000,87407828000000,485.0,4096,67,65,1797628,1797692,14381566043,14382078043,229,23571,0,0,0,0
87407859000000,87408359000000,500.0,4096,68,66,1797693,1797758,14382086043,14382606043,266,23639,0,0,0,0
87408390000000,87408890000000,500.0,4096,66,66,1797759,1797824,14382614043,14383134043,227,23705,0,0,0,0
87408921000000,87409406000000,485.0,4096,66,65,1797825,1797889,14383142043,14383654043,196,23771,0,0,0,0
87409437000000,87409937000000,500.0,4096,66,66,1797890,1797955,14383662043,14384182043,276,23837,0,0,0,0
87409968000000,87410453000000,485.0,4096,66,65,1797956,1798020,14384190047,14384702043,202,23903,0,0,0,0
87410484000000,87410984000000,500.0,4096,66,65,1798021,1798085,14384710047,14385222043,196,23969,0,0,0,0
87411000000000,87411515000000,515.0,4096,67,67,1798086,1798152,14385230045,14385758046,313,24036,0,0,0,0
87411546000000,87412046000000,500.0,4096,66,65,1798153,1798217,14385766047,14386278043,299,24102,0,0,0,0
87412062000000,87412546000000,484.0,4096,66,64,1798218,1798281,14386286043,14386790045,289,24168,0,0,0,0
87412578000000,87413078000000,500.0,4096,66,66,1798282,1798347,14386798045,14387318047,293,24234,0,0,0,0
87413109000000,87413609000000,500.0,4096,68,67,1798348,1798414,14387326046,14387854043,239,24302,0,0,0,0
87413640000000,87414140000000,500.0,4096,67,67,1798415,1798481,14387862043,14388390043,1031,24369,0,0,0,0
87414265000000,87414671000000,406.0,4096,67,66,1798482,1798547,14388398043,14388918043,223,24436,0,0,0,0
87414703000000,87415203000000,500.0,4096,68,67,1798548,1798614,14388926044,14389454043,238,24504,0,0,0,0
87415234000000,87415734000000,500.0,4096,67,67,1798615,1798681,14389462043,14389990043,303,24571,0,0,0,0
87415781000000,87416265000000,484.0,4096,67,66,1798682,1798747,14389998043,14390518043,200,24638,0,0,0,0
87416296000000,87416796000000,500.0,4096,67,66,1798748,1798813,14390526047,14391046043,227,24705,0,0,0,0
87416828000000,87417343000000,515.0,4096,67,67,1798814,1798880,14391054043,14391582045,201,24772,0,0,0,0
87417359000000,87417859000000,500.0,4096,68,66,1798881,1798946,14391590043,14392110044,203,24840,0,0,0,0
87417890000000,87418390000000,500.0,4096,67,67,1798947,1799013,14392118047,14392646043,215,24907,0,0,0,0
87418421000000,87418937000000,516.0,4096,68,67,1799014,1799080,14392654043,14393182044,299,24975,0,0,0,0
87418968000000,87419468000000,500.0,4096,67,66,1799081,1799146,14393190043,14393710047,163,25042,0,0,0,0
87419484000000,87420000000000,516.0,4096,67,67,1799147,1799213,14393718043,14394246043,228,25109,0,0,0,0
87420031000000,87420531000000,500.0,4096,68,67,1799214,1799280,14394254043,14394782045,362,25177,0,0,0,0
87420578000000,87421062000000,484.0,4096,66,66,1799281,1799346,14394790043,14395310046,177,25243,0,0,0,0
87421078000000,87421593000000,515.0,4096,68,67,1799347,1799413,14395318043,14395846046,303,25311,0,0,0,0
87421640000000,87422125000000,485.0,4096,67,66,1799414,1799479,14395854046,14396374043,185,25378,0,0,0,0
87422156000000,87422656000000,500.0,4096,68,67,1799480,1799546,14396382043,14396910045,187,25446,0,0,0,0
87422687000000,87423187000000,500.0,4096,67,66,1799547,1799612,14396918046,14397438043,300,25513,0,0,0,0
87423234000000,87423718000000,484.0,4096,67,66,1799613,1799678,14397446047,14397966046,221,25580,0,0,0,0
87423750000000,87424250000000,500.0,4096,67,67,1799679,1799745,14397974045,14398502044,197,25647,0,0,0,0
87424281000000,87424765000000,484.0,4096,66,65,1799746,1799810,14398510043,14399022045,187,25713,0,0,0,0
87424796000000,87425296000000,500.0,4096,66,65,1799811,1799875,14399030047,14399542043,138,25779,0,0,0,0
87425312000000,87425828000000,516.0,4096,66,66,1799876,1799941,14399550043,14400070046,205,25845,0,0,0,0
87425843000000,87426343000000,500.0,4096,67,66,1799942,1800007,14400078047,14400598043,186,25912,0,0,0,0
87426375000000,87426875000000,500.0,4096,66,66,1800008,1800073,14400606043,14401126043,274,25978,0,0,0,0
87426906000000,87427390000000,484.0,4096,67,65,1800074,1800138,14401134043,14401646043,127,26045,0,0,0,0
87427421000000,87427921000000,500.0,4096,66,65,1800139,1800203,14401654043,14402166045,198,26111,0,0,0,0
87427953000000,87428437000000,484.0,4096,67,66,1800204,1800269,14402174047,14402694043,186,26178,0,0,0,0
87428468000000,87428968000000,500.0,4096,66,65,1800270,1800334,14402702043,14403214043,148,26244,0,0,0,0
87428984000000,87429484000000,500.0,4096,66,65,1800335,1800399,14403222044,14403734043,193,26310,0,0,0,0
87429515000000,87430015000000,500.0,4096,67,67,1800400,1800466,14403742043,14404270044,251,26377,0,0,0,0
87430046000000,87430546000000,500.0,4096,67,66,1800467,1800532,14404278043,14404798043,296,26444,0,0,0,0
87430578000000,87431078000000,500.0,4096,67,67,1800533,1800599,14404806044,14405334044,285,26511,0,0,0,0
87431125000000,87431625000000,500.0,4096,67,66,1800600,1800665,14405342043,14405862043,263,26578,0,0,0,0
87431656000000,87432156000000,500.0,4096,68,67,1800666,1800732,14405870043,14406398043,227,26646,0,0,0,0
87432171000000,87432687000000,516.0,4096,67,66,1800733,1800798,14406406043,14406926043,185,26713,0,0,0,0
87432703000000,87433203000000,500.0,4096,67,66,1800799,1800864,14406934043,14407454044,215,26780,0,0,0,0
87433234000000,87433734000000,500.0,4096,66,65,1800865,1800929,14407462046,14407974047,211,26846,0,0,0,0
87433750000000,87434265000000,515.0,4096,67,67,1800930,1800996,14407982043,14408510046,184,26913,0,0,0,0
87434281000000,87434781000000,500.0,4096,66,65,1800997,1801061,14408518043,14409030045,1273,26979,0,0,0,0
87434953000000,87435312000000,359.0,4096,66,65,1801062,1801126,14409038045,14409550043,235,27045,0,0,0,0
87435328000000,87435828000000,500.0,4096,66,66,1801127,1801192,14409558044,14410078045,192,27111,0,0,0,0
87435859000000,87436359000000,500.0,4096,67,66,1801193,1801258,14410086046,14410606044,261,27178,0,0,0,0
87436390000000,87436875000000,485.0,4096,66,65,1801259,1801323,14410614046,14411126043,270,27244,0,0,0,0
87436921000000,87437406000000,485.0,4096,67,66,1801324,1801389,14411134047,14411654046,245,27311,0,0,0,0
87437437000000,87437921000000,484.0,4096,66,65,1801390,1801454,14411662043,14412174043,140,27377,0,0,0,0
87437953000000,87438453000000,500.0,4096,68,67,1801455,1801521,14412182043,14412710043,186,27445,0,0,0,0
87438484000000,87439000000000,516.0,4096,67,67,1801522,1801588,14412718046,14413246044,143,27512,0,0,0,0
87439015000000,87439515000000,500.0,4096,66,65,1801589,1801653,14413254043,14413766043,416,27578,0,0,0,0
87439578000000,87440046000000,468.0,4096,66,65,1801654,1801718,14413774045,14414286047,316,27644,0,0,0,0
87440078000000,87440578000000,500.0,4096,67,67,1801719,1801785,14414294043,14414822046,180,27711,0,0,0,0
87440593000000,87441093000000,500.0,4096,66,65,1801786,1801850,14414830047,14415342043,314,27777,0,0,0,0
87441140000000,87441625000000,485.0,4096,66,66,1801851,1801916,14415350043,14415870045,201,27843,0,0,0,0
87441656000000,87442156000000,500.0,4096,67,66,1801917,1801982,14415878044,14416398044,229,27910,0,0,0,0
87442171000000,87442671000000,500.0,4096,66,65,1801983,1802047,14416406047,14416918047,186,27976,0,0,0,0
87442687000000,87443187000000,500.0,4096,66,65,1802048,1802112,14416926043,14417438043,197,28042,0,0,0,0
87443218000000,87443718000000,500.0,4096,67,66,1802113,1802178,14417446046,14417966045,218,28109,0,0,0,0
87443750000000,87444250000000,500.0,4096,67,67,1802179,1802245,14417974044,14418502045,162,28176,0,0,0,0
87444281000000,87444781000000,500.0,4096,67,66,1802246,1802311,14418510043,14419030043,220,28243,0,0,0,0
87444812000000,87445312000000,500.0,4096,68,67,1802312,1802378,14419038046,14419566046,203,28311,0,0,0,0
87445343000000,87445859000000,516.0,4096,67,67,1802379,1802445,14419574044,14420102044,257,28378,0,0,0,0
87445890000000,87446390000000,500.0,4096,67,66,1802446,1802511,14420110043,14420630043,201,28445,0,0,0,0
87446406000000,87446921000000,515.0,4096,68,67,1802512,1802578,14420638043,14421166046,232,28513,0,0,0,0
87446953000000,87447453000000,500.0,4096,67,66,1802579,1802644,14421174046,14421694043,199,28580,0,0,0,0
87447468000000,87447984000000,516.0,4096,68,67,1802645,1802711,14421702043,14422230043,143,28648,0,0,0,0
87448000000000,87448500000000,500.0,4096,67,65,1802712,1802776,14422238047,14422750044,221,28715,0,0,0,0
87448531000000,87449046000000,515.0,4096,67,67,1802777,1802843,14422758043,14423286045,219,28782,0,0,0,0
87449078000000,87449578000000,500.0,4096,68,67,1802844,1802910,14423294043,14423822043,161,28850,0,0,0,0
87449593000000,87450109000000,516.0,4096,68,67,1802911,1802977,14423830043,14424358043,203,28918,0,0,0,0
87450140000000,87450640000000,500.0,4096,67,67,1802978,1803044,14424366045,14424894044,241,28985,0,0,0,0
87450671000000,87451171000000,500.0,4096,67,66,1803045,1803110,14424902045,14425422043,141,29052,0,0,0,0
87451187000000,87451703000000,516.0,4096,67,66,1803111,1803176,14425430043,14425950043,217,29119,0,0,0,0
87451734000000,87452234000000,500.0,4096,67,67,1803177,1803243,14425958045,14426486043,132,29186,0,0,0,0
87452265000000,87452765000000,500.0,4096,68,66,1803244,1803309,14426494043,14427014043,214,29254,0,0,0,0
87452796000000,87453296000000,500.0,4096,68,67,1803310,1803376,14427022043,14427550043,206,29322,0,0,0,0
87453328000000,87453828000000,500.0,4096,67,66,1803377,1803442,14427558043,14428078043,215,29389,0,0,0,0
87453859000000,87454359000000,500.0,4096,67,67,1803443,1803509,14428086043,14428614046,218,29456,0,0,0,0
87454390000000,87454906000000,516.0,4096,68,67,1803510,1803576,14428622044,14429150043,1252,29524,0,0,0,0
87455062000000,87455437000000,375.0,4096,67,66,1803577,1803642,14429158044,14429678047,257,29591,0,0,0,0
87455468000000,87455968000000,500.0,4096,67,67,1803643,1803709,14429686045,14430214044,272,29658,0,0,0,0
87456000000000,87456500000000,500.0,4096,68,67,1803710,1803776,14430222043,14430750046,213,29726,0,0,0,0
87456531000000,87457031000000,500.0,4096,67,66,1803777,1803842,14430758047,14431278046,237,29793,0,0,0,0
87457062000000,87457562000000,500.0,4096,67,66,1803843,1803908,14431286043,14431806043,214,29860,0,0,0,0
87457593000000,87458093000000,500.0,4096,67,66,1803909,1803974,14431814043,14432334043,144,29927,0,0,0,0
87458109000000,87458625000000,516.0,4096,68,67,1803975,1804041,14432342044,14432870044,257,29995,0,0,0,0
87458656000000,87459156000000,500.0,4096,67,67,1804042,1804108,14432878046,14433406045,331,30062,0,0,0,0
87459203000000,87459687000000,484.0,4096,67,66,1804109,1804174,14433414044,14433934043,165,30129,0,0,0,0
87459703000000,87460218000000,515.0,4096,68,67,1804175,1804241,14433942043,14434470044,217,30197,0,0,0,0
87460250000000,87460750000000,500.0,4096,67,66,1804242,1804307,14434478046,14434998043,143,30264,0,0,0,0
87460765000000,87461296000000,531.0,4096,67,67,1804308,1804374,14435006043,14435534043,235,30331,0,0,0,0
87461312000000,87461828000000,516.0,4096,68,67,1804375,1804441,14435542046,14436070047,272,30399,0,0,0,0
87461859000000,87462359000000,500.0,4096,68,67,1804442,1804508,14436078043,14436606044,182,30467,0,0,0,0
87462375000000,87462890000000,515.0,4096,67,66,1804509,1804574,14436614044,14437134045,237,30534,0,0,0,0
87462921000000,87463421000000,500.0,4096,67,66,1804575,1804640,14437142043,14437662043,221,30601,0,0,0,0
87463453000000,87463953000000,500.0,4096,68,67,1804641,1804707,14437670043,14438198045,244,30669,0,0,0,0
87463984000000,87464484000000,500.0,4096,68,67,1804708,1804774,14438206043,14438734047,194,30737,0,0,0,0
87464515000000,87465015000000,500.0,4096,67,67,1804775,1804841,14438742045,14439270043,185,30804,0,0,0,0
87465046000000,87465546000000,500.0,4096,66,65,1804842,1804906,14439278047,14439790047,139,30870,0,0,0,0
87465562000000,87466062000000,500.0,4096,67,66,1804907,1804972,14439798043,14440318045,196,30937,0,0,0,0
87466093000000,87466593000000,500.0,4096,67,66,1804973,1805038,14440326043,14440846043,233,31004,0,0,0,0
87466625000000,87467140000000,515.0,4096,67,67,1805039,1805105,14440854043,14441382043,421,31071,0,0,0,0
87467187000000,87467656000000,469.0,4096,66,64,1805106,1805169,14441390043,14441894047,229,31137,0,0,0,0
87467687000000,87468171000000,484.0,4096,67,66,1805170,1805235,14441902043,14442422043,218,31204,0,0,0,0
87468203000000,87468703000000,500.0,4096,66,65,1805236,1805300,14442430043,14442942043,241,31270,0,0,0,0
87468734000000,87469218000000,484.0,4096,66,65,1805301,1805365,14442950047,14443462043,192,31336,0,0,0,0
87469250000000,87469750000000,500.0,4096,68,67,1805366,1805432,14443470046,14443998046,331,31404,0,0,0,0
87469796000000,87470281000000,485.0,4096,67,66,1805433,1805498,14444006047,14444526043,150,31471,0,0,0,0
87470296000000,87470812000000,516.0,4096,67,67,1805499,1805565,14444534043,14445062046,231,31538,0,0,0,0
87470843000000,87471343000000,500.0,4096,68,67,1805566,1805632,14445070043,14445598045,301,31606,0,0,0,0
87471390000000,87471875000000,485.0,4096,67,66,1805633,1805698,14445606045,14446126043,183,31673,0,0,0,0
87471906000000,87472406000000,500.0,4096,67,66,1805699,1805764,14446134045,14446654043,219,31740,0,0,0,0
87472437000000,87472937000000,500.0,4096,68,67,1805765,1805831,14446662043,14447190043,268,31808,0,0,0,0
87472968000000,87473484000000,516.0,4096,68,67,1805832,1805898,14447198046,14447726043,203,31876,0,0,0,0
87473500000000,87474000000000,500.0,4096,67,66,1805899,1805964,14447734045,14448254046,223,31943,0,0,0,0
87474031000000,87474546000000,515.0,4096,67,67,1805965,1806031,14448262043,14448790047,148,32010,0,0,0,0
87474562000000,87475078000000,516.0,4096,68,67,1806032,1806098,14448798043,14449326045,1318,32078,0,0,0,0
87475250000000,87475609000000,359.0,4096,67,66,1806099,1806164,14449334043,14449854045,214,32145,0,0,0,0
87475640000000,87476156000000,516.0,4096,68,68,1806165,1806232,14449862047,14450398043,328,32213,0,0,0,0
87476187000000,87476671000000,484.0,4096,67,66,1806233,1806298,14450406044,14450926043,259,32280,0,0,0,0
87476703000000,87477203000000,500.0,4096,67,66,1806299,1806364,14450934044,14451454047,245,32347,0,0,0,0
87477234000000,87477750000000,516.0,4096,68,67,1806365,1806431,14451462043,14451990043,219,32415,0,0,0,0
87477781000000,87478281000000,500.0,4096,68,67,1806432,1806498,14451998046,14452526046,206,32483,0,0,0,0
87478312000000,87478812000000,500.0,4096,68,67,1806499,1806565,14452534045,14453062043,213,32551,0,0,0,0
87478843000000,87479359000000,516.0,4096,68,68,1806566,1806633,14453070046,14453606046,195,32619,0,0,0,0
87479390000000,87479890000000,500.0,4096,67,66,1806634,1806699,14453614045,14454134045,231,32686,0,0,0,0
87479921000000,87480421000000,500.0,4096,67,67,1806700,1806766,14454142044,14454670045,247,32753,0,0,0,0
87480453000000,87480953000000,500.0,4096,68,67,1806767,1806833,14454678047,14455206043,246,32821,0,0,0,0
87480984000000,87481500000000,516.0,4096,68,67,1806834,1806900,14455214047,14455742043,268,32889,0,0,0,0
87481531000000,87482031000000,500.0,4096,67,67,1806901,1806967,14455750047,14456278046,293,32956,0,0,0,0
87482062000000,87482562000000,500.0,4096,68,66,1806968,1807033,14456286046,14456806047,191,33024,0,0,0,0
87482593000000,87483093000000,500.0,4096,68,67,1807034,1807100,14456814043,14457342046,255,33092,0,0,0,0
87483125000000,87483625000000,500.0,4096,68,67,1807101,1807167,14457350046,14457878043,164,33160,0,0,0,0
87483656000000,87484171000000,515.0,4096,67,67,1807168,1807234,14457886043,14458414045,347,33227,0,0,0,0
87484218000000,87484703000000,485.0,4096,69,68,1807235,1807302,14458422043,14458958043,246,33296,0,0,0,0
87484734000000,87485250000000,516.0,4096,68,67,1807303,1807369,14458966047,14459494043,208,33364,0,0,0,0
87485265000000,87485781000000,516.0,4096,67,67,1807370,1807436,14459502043,14460030044,181,33431,0,0,0,0
87485812000000,87486312000000,500.0,4096,67,66,1807437,1807502,14460038043,14460558046,124,33498,0,0,0,0
87486328000000,87486859000000,531.0,4096,69,68,1807503,1807570,14460566043,14461102043,272,33567,0,0,0,0
87486890000000,87487390000000,500.0,4096,68,66,1807571,1807636,14461110043,14461630046,227,33635,0,0,0,0
87487421000000,87487921000000,500.0,4096,67,67,1807637,1807703,14461638045,14462166047,187,33702,0,0,0,0
87487937000000,87488453000000,516.0,4096,69,67,1807704,1807770,14462174045,14462702043,306,33771,0,0,0,0
87488500000000,87488984000000,484.0,4096,68,67,1807771,1807837,14462710043,14463238043,153,33839,0,0,0,0
87489015000000,87489531000000,516.0,4096,67,67,1807838,1807904,14463246043,14463774044,214,33906,0,0,0,0
87489546000000,87490062000000,516.0,4096,68,67,1807905,1807971,14463782045,14464310043,337,33974,0,0,0,0
87490109000000,87490593000000,484.0,4096,68,67,1807972,1808038,14464318043,14464846043,203,34042,0,0,0,0
87490625000000,87491140000000,515.0,4096,67,67,1808039,1808105,14464854043,14465382047,279,34109,0,0,0,0
87491171000000,87491671000000,500.0,4096,68,67,1808106,1808172,14465390044,14465918043,265,34177,0,0,0,0
87491703000000,87492203000000,500.0,4096,68,67,1808173,1808239,14465926043,14466454047,288,34245,0,0,0,0
87492250000000,87492734000000,484.0,4096,67,65,1808240,1808304,14466462043,14466974047,340,34312,0,0,0,0
87492781000000,87493265000000,484.0,4096,67,67,1808305,1808371,14466982043,14467510043,226,34379,0,0,0,0
87493296000000,87493812000000,516.0,4096,69,68,1808372,1808439,14467518044,14468054043,216,34448,0,0,0,0
87493828000000,87494343000000,515.0,4096,67,66,1808440,1808505,14468062046,14468582046,244,34515,0,0,0,0
87494375000000,87494875000000,500.0,4096,67,67,1808506,1808572,14468590046,14469118044,188,34582,0,0,0,0
87494906000000,87495406000000,500.0,4096,68,67,1808573,1808639,14469126046,14469654045,1225,34650,0,0,0,0
87495562000000,87495937000000,375.0,4096,67,66,1808640,1808705,14469662044,14470182047,259,34717,0,0,0,0
87495968000000,87496468000000,500.0,4096,67,67,1808706,1808772,14470190044,14470718046,224,34784,0,0,0,0
87496484000000,87497000000000,516.0,4096,67,66,1808773,1808838,14470726045,14471246046,326,34851,0,0,0,0
87497031000000,87497515000000,484.0,4096,67,65,1808839,1808903,14471254043,14471766045,204,34918,0,0,0,0
87497546000000,87498046000000,500.0,4096,66,65,1808904,1808968,14471774043,14472286047,235,34984,0,0,0,0
87498078000000,87498578000000,500.0,4096,67,67,1808969,1809035,14472294045,14472822043,229,35051,0,0,0,0
87498609000000,87499093000000,484.0,4096,67,66,1809036,1809101,14472830043,14473350043,158,35118,0,0,0,0
87499125000000,87499625000000,500.0,4096,66,65,1809102,1809166,14473358043,14473870046,234,35184,0,0,0,0
87499656000000,87500156000000,500.0,4096,67,67,1809167,1809233,14473878045,14474406045,284,35251,0,0,0,0
87500187000000,87500687000000,500.0,4096,66,65,1809234,1809298,14474414047,14474926043,153,35317,0,0,0,0
87500703000000,87501203000000,500.0,4096,66,65,1809299,1809363,14474934043,14475446047,233,35383,0,0,0,0
87501234000000,87501718000000,484.0,4096,66,65,1809364,1809428,14475454043,14475966043,231,35449,0,0,0,0
87501750000000,87502250000000,500.0,4096,67,67,1809429,1809495,14475974043,14476502043,330,35516,0,0,0,0
87502296000000,87502781000000,485.0,4096,67,65,1809496,1809560,14476510043,14477022046,285,35583,0,0,0,0
87502812000000,87503312000000,500.0,4096,67,67,1809561,1809627,14477030045,14477558043,243,35650,0,0,0,0
87503343000000,87503859000000,516.0,4096,69,68,1809628,1809695,14477566043,14478102043,244,35719,0,0,0,0
87503890000000,87504390000000,500.0,4096,68,67,1809696,1809762,14478110043,14478638050,197,35787,0,0,0,0
87504421000000,87504921000000,500.0,4096,67,67,1809763,1809829,14478646045,14479174044,219,35854,0,0,0,0
87504953000000,87505468000000,515.0,4096,68,67,1809830,1809896,14479182047,14479710043,223,35922,0,0,0,0
87505500000000,87506000000000,500.0,4096,68,67,1809897,1809963,14479718046,14480246043,207,35990,0,0,0,0
87506031000000,87506531000000,500.0,4096,67,67,1809964,1810030,14480254045,14480782047,302,36057,0,0,0,0
87506578000000,87507062000000,484.0,4096,68,67,1810031,1810097,14480790043,14481318047,327,36125,0,0,0,0
87507109000000,87507593000000,484.0,4096,67,65,1810098,1810162,14481326044,14481838045,225,36192,0,0,0,0
87507625000000,87508125000000,500.0,4096,67,67,1810163,1810229,14481846043,14482374043,223,36259,0,0,0,0
87508156000000,87508656000000,500.0,4096,68,66,1810230,1810295,14482382043,14482902043,169,36327,0,0,0,0
87508687000000,87509187000000,500.0,4096,67,66,1810296,1810361,14482910045,14483430043,218,36394,0,0,0,0
87509218000000,87509718000000,500.0,4096,67,67,1810362,1810428,14483438043,14483966043,225,36461,0,0,0,0
87509750000000,87510250000000,500.0,4096,68,67,1810429,1810495,14483974043,14484502043,184,36529,0,0,0,0
87510281000000,87510781000000,500.0,4096,67,66,1810496,1810561,14484510043,14485030046,244,36596,0,0,0,0
87510828000000,87511328000000,500.0,4096,68,68,1810562,1810629,14485038045,14485574047,337,36664,0,0,0,0
87511375000000,87511859000000,484.0,4096,68,67,1810630,1810696,14485582047,14486110044,307,36732,0,0,0,0
87511906000000,87512390000000,484.0,4096,68,66,1810697,1810762,14486118044,14486638047,240,36800,0,0,0,0
87512421000000,87512921000000,500.0,4096,67,67,1810763,1810829,14486646043,14487174044,163,36867,0,0,0,0
87512953000000,87513468000000,515.0,4096,68,67,1810830,1810896,14487182043,14487710044,254,36935,0,0,0,0
87513500000000,87514000000000,500.0,4096,67,67,1810897,1810963,14487718043,14488246043,253,37002,0,0,0,0
87514031000000,87514531000000,500.0,4096,68,67,1810964,1811030,14488254044,14488782043,223,37070,0,0,0,0
87514562000000,87515062000000,500.0,4096,68,67,1811031,1811097,14488790045,14489318043,222,37138,0,0,0,0
87515093000000,87515609000000,516.0,4096,67,67,1811098,1811164,14489326046,14489854047,1354,37205,0,0,0,0
87515781000000,87516140000000,359.0,4096,68,67,1811165,1811231,14489862047,14490390045,173,37273,0,0,0,0
87516156000000,87516671000000,515.0,4096,67,66,1811232,1811297,14490398045,14490918044,324,37340,0,0,0,0
87516718000000,87517218000000,500.0,4096,68,68,1811298,1811365,14490926043,14491462043,306,37408,0,0,0,0
87517250000000,87517734000000,484.0,4096,68,66,1811366,1811431,14491470043,14491990045,214,37476,0,0,0,0
87517765000000,87518281000000,516.0,4096,67,67,1811432,1811498,14491998045,14492526044,269,37543,0,0,0,0
87518312000000,87518812000000,500.0,4096,68,67,1811499,1811565,14492534043,14493062043,343,37611,0,0,0,0
87518859000000,87519343000000,484.0,4096,68,67,1811566,1811632,14493070043,14493598043,240,37679,0,0,0,0
87519375000000,87519890000000,515.0,4096,67,67,1811633,1811699,14493606044,14494134043,269,37746,0,0,0,0
87519921000000,87520421000000,500.0,4096,67,66,1811700,1811765,14494142043,14494662046,205,37813,0,0,0,0
87520437000000,87520953000000,516.0,4096,68,67,1811766,1811832,14494670047,14495198043,232,37881,0,0,0,0
87520984000000,87521484000000,500.0,4096,67,67,1811833,1811899,14495206046,14495734043,287,37948,0,0,0,0
87521515000000,87522015000000,500.0,4096,67,66,1811900,1811965,14495742043,14496262046,208,38015,0,0,0,0
87522046000000,87522546000000,500.0,4096,69,67,1811966,1812032,14496270044,14496798043,287,38084,0,0,0,0
87522593000000,87523078000000,485.0,4096,66,66,1812033,1812098,14496806043,14497326044,205,38150,0,0,0,0
87523109000000,87523609000000,500.0,4096,67,66,1812099,1812164,14497334043,14497854047,305,38217,0,0,0,0
87523640000000,87524140000000,500.0,4096,66,66,1812165,1812230,14497862043,14498382043,302,38283,0,0,0,0
87524171000000,87524671000000,500.0,4096,67,66,1812231,1812296,14498390043,14498910046,180,38350,0,0,0,0
87524687000000,87525187000000,500.0,4096,66,65,1812297,1812361,14498918043,14499430043,284,38416,0,0,0,0
87525218000000,87525718000000,500.0,4096,67,67,1812362,1812428,14499438043,14499966044,174,38483,0,0,0,0
87525734000000,87526234000000,500.0,4096,66,65,1812429,1812493,14499974046,14500486045,226,38549,0,0,0,0
87526265000000,87526765000000,500.0,4096,67,66,1812494,1812559,14500494044,14501014046,220,38616,0,0,0,0
87526796000000,87527296000000,500.0,4096,66,66,1812560,1812625,14501022045,14501542043,340,38682,0,0,0,0
87527343000000,87527812000000,469.0,4096,66,64,1812626,1812689,14501550043,14502054047,318,38748,0,0,0,0
87527859000000,87528343000000,484.0,4096,67,66,1812690,1812755,14502062044,14502582044,224,38815,0,0,0,0
87528359000000,87528859000000,500.0,4096,66,66,1812756,1812821,14502590047,14503110046,218,38881,0,0,0,0
87528890000000,87529390000000,500.0,4096,66,65,1812822,1812886,14503118047,14503630043,164,38947,0,0,0,0
87529406000000,87529906000000,500.0,4096,66,66,1812887,1812952,14503638047,14504158043,221,39013,0,0,0,0
87529937000000,87530437000000,500.0,4096,67,66,1812953,1813018,14504166045,14504686043,173,39080,0,0,0,0
87530468000000,87530968000000,500.0,4096,68,67,1813019,1813085,14504694043,14505222043,230,39148,0,0,0,0
87531000000000,87531500000000,500.0,4096,66,66,1813086,1813151,14505230045,14505750043,219,39214,0,0,0,0
87531531000000,87532046000000,515.0,4096,68,67,1813152,1813218,14505758044,14506286043,193,39282,0,0,0,0
87532062000000,87532578000000,516.0,4096,68,67,1813219,1813285,14506294047,14506822044,278,39350,0,0,0,0
87532609000000,87533093000000,484.0,4096,67,66,1813286,1813351,14506830043,14507350046,213,39417,0,0,0,0
87533125000000,87533640000000,515.0,4096,68,67,1813352,1813418,14507358043,14507886043,216,39485,0,0,0,0
87533671000000,87534171000000,500.0,4096,67,66,1813419,1813484,14507894046,14508414044,252,39552,0,0,0,0
87534203000000,87534703000000,500.0,4096,67,67,1813485,1813551,14508422043,14508950045,158,39619,0,0,0,0
87534718000000,87535218000000,500.0,4096,67,66,1813552,1813617,14508958043,14509478046,218,39686,0,0,0,0
87535250000000,87535750000000,500.0,4096,66,65,1813618,1813682,14509486043,14509998046,353,39752,0,0,0,0
87535796000000,87536281000000,485.0,4096,66,66,1813683,1813748,14510006046,14510526047,1569,39818,0,0,0,0
87536484000000,87536812000000,328.0,4096,67,66,1813749,1813814,14510534045,14511054043,426,39885,0,0,0,0
87536859000000,87537328000000,469.0,4096,67,66,1813815,1813880,14511062043,14511582044,183,39952,0,0,0,0
87537359000000,87537843000000,484.0,4096,66,64,1813881,1813944,14511590043,14512094043,233,40018,0,0,0,0
87537875000000,87538375000000,500.0,4096,66,66,1813945,1814010,14512102043,14512622043,173,40084,0,0,0,0
87538406000000,87538906000000,500.0,4096,67,66,1814011,1814076,14512630046,14513150043,282,40151,0,0,0,0
87538937000000,87539421000000,484.0,4096,66,65,1814077,1814141,14513158046,14513670043,220,40217,0,0,0,0
87539453000000,87539968000000,515.0,4096,67,67,1814142,1814208,14513678043,14514206043,188,40284,0,0,0,0
87539984000000,87540500000000,516.0,4096,68,67,1814209,1814275,14514214043,14514742043,245,40352,0,0,0,0
87540531000000,87541031000000,500.0,4096,67,66,1814276,1814341,14514750047,14515270043,245,40419,0,0,0,0
87541062000000,87541562000000,500.0,4096,67,67,1814342,1814408,14515278046,14515806043,246,40486,0,0,0,0
87541593000000,87542093000000,500.0,4096,68,67,1814409,1814475,14515814047,14516342045,320,40554,0,0,0,0
87542140000000,87542625000000,485.0,4096,68,66,1814476,1814541,14516350043,14516870046,269,40622,0,0,0,0
87542656000000,87543156000000,500.0,4096,67,67,1814542,1814608,14516878044,14517406044,222,40689,0,0,0,0
87543187000000,87543687000000,500.0,4096,68,67,1814609,1814675,14517414048,14517942046,228,40757,0,0,0,0
87543718000000,87544218000000,500.0,4096,67,66,1814676,1814741,14517950043,14518470044,217,40824,0,0,0,0
87544250000000,87544765000000,515.0,4096,67,67,1814742,1814808,14518478047,14519006046,283,40891,0,0,0,0
87544796000000,87545296000000,500.0,4096,68,67,1814809,1814875,14519014045,14519542043,354,40959,0,0,0,0
87545343000000,87545828000000,485.0,4096,67,66,1814876,1814941,14519550043,14520070043,254,41026,0,0,0,0
87545859000000,87546359000000,500.0,4096,67,67,1814942,1815008,14520078047,14520606043,224,41093,0,0,0,0
87546390000000,87546890000000,500.0,4096,68,67,1815009,1815075,14520614046,14521142044,268,41161,0,0,0,0
87546921000000,87547421000000,500.0,4096,67,65,1815076,1815140,14521150043,14521662047,230,41228,0,0,0,0
87547453000000,87547953000000,500.0,4096,67,67,1815141,1815207,14521670043,14522198047,233,41295,0,0,0,0
87547984000000,87548484000000,500.0,4096,68,66,1815208,1815273,14522206047,14522726043,165,41363,0,0,0,0
87548500000000,87549015000000,515.0,4096,67,67,1815274,1815340,14522734044,14523262047,265,41430,0,0,0,0
87549046000000,87549546000000,500.0,4096,68,67,1815341,1815407,14523270043,14523798043,240,41498,0,0,0,0
87549578000000,87550078000000,500.0,4096,67,66,1815408,1815473,14523806046,14524326043,256,41565,0,0,0,0
87550109000000,87550625000000,516.0,4096,67,67,1815474,1815540,14524334043,14524862043,294,41632,0,0,0,0
87550656000000,87551156000000,500.0,4096,68,67,1815541,1815607,14524870043,14525398043,191,41700,0,0,0,0
87551171000000,87551687000000,516.0,4096,68,67,1815608,1815674,14525406043,14525934043,283,41768,0,0,0,0
87551718000000,87552218000000,500.0,4096,67,67,1815675,1815741,14525942043,14526470043,223,41835,0,0,0,0
87552250000000,87552750000000,500.0,4096,68,66,1815742,1815807,14526478043,14526998043,161,41903,0,0,0,0
87552781000000,87553281000000,500.0,4096,68,67,1815808,1815874,14527006044,14527534046,219,41971,0,0,0,0
87553312000000,87553828000000,516.0,4096,67,67,1815875,1815941,14527542044,14528070043,254,42038,0,0,0,0
87553859000000,87554359000000,500.0,4096,68,67,1815942,1816008,14528078047,14528606045,186,42106,0,0,0,0
87554375000000,87554890000000,515.0,4096,67,66,1816009,1816074,14528614044,14529134046,210,42173,0,0,0,0
87554921000000,87555421000000,500.0,4096,67,67,1816075,1816141,14529142045,14529670045,230,42240,0,0,0,0
87555453000000,87555953000000,500.0,4096,68,67,1816142,1816208,14529678043,14530206046,244,42308,0,0,0,0
87555984000000,87556484000000,500.0,4096,66,66,1816209,1816274,14530214046,14530734043,1478,42374,0,0,0,0
87556687000000,87557031000000,344.0,4096,68,67,1816275,1816341,14530742043,14531270045,208,42442,0,0,0,0
87557046000000,87557546000000,500.0,4096,68,66,1816342,1816407,14531278043,14531798047,229,42510,0,0,0,0
87557578000000,87558078000000,500.0,4096,67,67,1816408,1816474,14531806047,14532334046,262,42577,0,0,0,0
87558125000000,87558625000000,500.0,4096,68,67,1816475,1816541,14532342043,14532870043,170,42645,0,0,0,0
87558640000000,87559156000000,516.0,4096,67,66,1816542,1816607,14532878043,14533398047,215,42712,0,0,0,0
87559171000000,87559687000000,516.0,4096,67,67,1816608,1816674,14533406043,14533934044,159,42779,0,0,0,0
87559703000000,87560218000000,515.0,4096,68,67,1816675,1816741,14533942047,14534470045,245,42847,0,0,0,0
87560250000000,87560765000000,515.0,4096,67,67,1816742,1816808,14534478043,14535006044,292,42914,0,0,0,0
87560796000000,87561296000000,500.0,4096,67,66,1816809,1816874,14535014043,14535534043,203,42981,0,0,0,0
87561312000000,87561828000000,516.0,4096,68,67,1816875,1816941,14535542043,14536070047,416,43049,0,0,0,0
87561875000000,87562359000000,484.0,4096,67,67,1816942,1817008,14536078045,14536606043,374,43116,0,0,0,0
87562390000000,87562890000000,500.0,4096,68,66,1817009,1817074,14536614043,14537134043,218,43184,0,0,0,0
87562921000000,87563421000000,500.0,4096,68,67,1817075,1817141,14537142045,14537670045,291,43252,0,0,0,0
87563453000000,87563953000000,500.0,4096,67,67,1817142,1817208,14537678043,14538206043,210,43319,0,0,0,0
87563984000000,87564484000000,500.0,4096,67,66,1817209,1817274,14538214043,14538734043,278,43386,0,0,0,0
87564531000000,87565015000000,484.0,4096,68,67,1817275,1817341,14538742047,14539270047,228,43454,0,0,0,0
87565046000000,87565562000000,516.0,4096,67,67,1817342,1817408,14539278045,14539806047,226,43521,0,0,0,0
87565593000000,87566093000000,500.0,4096,68,67,1817409,1817475,14539814043,14540342043,238,43589,0,0,0,0
87566125000000,87566625000000,500.0,4096,67,66,1817476,1817541,14540350043,14540870043,198,43656,0,0,0,0
87566640000000,87567156000000,516.0,4096,67,67,1817542,1817608,14540878043,14541406043,231,43723,0,0,0,0
87567187000000,87567687000000,500.0,4096,68,66,1817609,1817674,14541414045,14541934044,244,43791,0,0,0,0
87567718000000,87568218000000,500.0,4096,67,66,1817675,1817740,14541942043,14542462043,180,43858,0,0,0,0
87568234000000,87568750000000,516.0,4096,68,67,1817741,1817807,14542470043,14542998046,365,43926,0,0,0,0
87568796000000,87569281000000,485.0,4096,67,66,1817808,1817873,14543006047,14543526043,222,43993,0,0,0,0
87569312000000,87569812000000,500.0,4096,67,67,1817874,1817940,14543534043,14544062047,258,44060,0,0,0,0
87569843000000,87570343000000,500.0,4096,68,67,1817941,1818007,14544070043,14544598046,368,44128,0,0,0,0
87570390000000,87570890000000,500.0,4096,67,66,1818008,1818073,14544606043,14545126042,241,44195,0,0,0,0
87570906000000,87571406000000,500.0,4096,67,67,1818074,1818140,14545134043,14545662043,236,44262,0,0,0,0
87571437000000,87571937000000,500.0,4096,67,66,1818141,1818206,14545670043,14546190046,274,44329,0,0,0,0
87571984000000,87572468000000,484.0,4096,67,66,1818207,1818272,14546198043,14546718043,290,44396,0,0,0,0
87572515000000,87573000000000,485.0,4096,68,67,1818273,1818339,14546726043,14547254043,278,44464,0,0,0,0
87573046000000,87573531000000,485.0,4096,67,66,1818340,1818405,14547262043,14547782043,230,44531,0,0,0,0
87573562000000,87574078000000,516.0,4096,67,67,1818406,1818472,14547790047,14548318043,168,44598,0,0,0,0
87574093000000,87574609000000,516.0,4096,68,67,1818473,1818539,14548326047,14548854045,289,44666,0,0,0,0
87574656000000,87575140000000,484.0,4096,68,67,1818540,1818606,14548862044,14549390046,263,44734,0,0,0,0
87575171000000,87575687000000,516.0,4096,67,67,1818607,1818673,14549398044,14549926043,174,44801,0,0,0,0
87575703000000,87576218000000,515.0,4096,68,67,1818674,1818740,14549934045,14550462043,1631,44869,0,0,0,0
87576421000000,87576750000000,329.0,4096,68,67,1818741,1818807,14550470043,14550998043,274,44937,0,0,0,0
87576781000000,87577281000000,500.0,4096,67,67,1818808,1818874,14551006043,14551534043,239,45004,0,0,0,0
87577312000000,87577812000000,500.0,4096,68,66,1818875,1818940,14551542043,14552062043,274,45072,0,0,0,0
87577859000000,87578359000000,500.0,4096,68,67,1818941,1819007,14552070047,14552598046,208,45140,0,0,0,0
87578375000000,87578890000000,515.0,4096,67,67,1819008,1819074,14552606047,14553134043,346,45207,0,0,0,0
87578937000000,87579421000000,484.0,4096,67,66,1819075,1819140,14553142046,14553662043,361,45274,0,0,0,0
87579468000000,87579953000000,485.0,4096,68,67,1819141,1819207,14553670047,14554198045,180,45342,0,0,0,0
87579968000000,87580484000000,516.0,4096,67,67,1819208,1819274,14554206043,14554734046,304,45409,0,0,0,0
87580531000000,87581015000000,484.0,4096,67,66,1819275,1819340,14554742046,14555262047,179,45476,0,0,0,0
87581031000000,87581546000000,515.0,4096,67,66,1819341,1819406,14555270043,14555790043,223,45543,0,0,0,0
87581578000000,87582078000000,500.0,4096,67,67,1819407,1819473,14555798047,14556326046,278,45610,0,0,0,0
87582125000000,87582609000000,484.0,4096,68,66,1819474,1819539,14556334043,14556854045,243,45678,0,0,0,0
87582640000000,87583125000000,485.0,4096,66,65,1819540,1819604,14556862043,14557374044,227,45744,0,0,0,0
87583156000000,87583656000000,500.0,4096,66,66,1819605,1819670,14557382043,14557902043,215,45810,0,0,0,0
87583687000000,87584203000000,516.0,4096,66,65,1819671,1819738,14557910043,14558446043,188,45876,1,0,1,3
87584218000000,87584765000000,547.0,4096,66,65,1819739,1819809,14558454043,14559014045,537,45942,2,1,3,9
87584828000000,87585296000000,468.0,4096,67,66,1819810,1819875,14559022045,14559542043,223,46009,2,1,3,9
87585328000000,87585828000000,500.0,4096,66,66,1819876,1819941,14559550044,14560070046,235,46075,2,1,3,9
87585843000000,87586343000000,500.0,4096,66,65,1819942,1820006,14560078043,14560590047,226,46141,2,1,3,9
87586375000000,87586875000000,500.0,4096,68,67,1820007,1820073,14560598043,14561126043,213,46209,2,1,3,9
87586906000000,87587406000000,500.0,4096,68,66,1820074,1820139,14561134043,14561654043,301,46277,2,1,3,9
87587453000000,87587953000000,500.0,4096,67,67,1820140,1820206,14561662046,14562190045,230,46344,2,1,3,9
87587984000000,87588484000000,500.0,4096,69,67,1820207,1820273,14562198045,14562726045,337,46413,2,1,3,9
87588515000000,87589015000000,500.0,4096,68,67,1820274,1820340,14562734043,14563262044,297,46481,2,1,3,9
87589046000000,87589546000000,500.0,4096,67,67,1820341,1820407,14563270043,14563798046,177,46548,2,1,3,9
87589578000000,87590078000000,500.0,4096,67,66,1820408,1820473,14563806044,14564326043,249,46615,2,1,3,9
87590109000000,87590609000000,500.0,4096,67,66,1820474,1820539,14564334047,14564854043,226,46682,2,1,3,9
87590640000000,87591140000000,500.0,4096,67,67,1820540,1820606,14564862045,14565390043,338,46749,2,1,3,9
87591187000000,87591671000000,484.0,4096,68,67,1820607,1820673,14565398043,14565926043,307,46817,2,1,3,9
87591718000000,87592203000000,485.0,4096,67,66,1820674,1820739,14565934046,14566454045,149,46884,2,1,3,9
87592234000000,87592734000000,500.0,4096,68,66,1820740,1820805,14566462044,14566982043,263,46952,2,1,3,9
87592765000000,87593265000000,500.0,4096,67,67,1820806,1820872,14566990046,14567518047,264,47019,2,1,3,9
87593296000000,87593796000000,500.0,4096,67,66,1820873,1820938,14567526045,14568046044,192,47086,2,1,3,9
87593828000000,87594328000000,500.0,4096,68,67,1820939,1821005,14568054044,14568582043,456,47154,2,1,3,9
87594390000000,87594859000000,469.0,4096,66,66,1821006,1821071,14568590046,14569110043,215,47220,2,1,3,9
87594890000000,87595390000000,500.0,4096,68,67,1821072,1821138,14569118044,14569646045,228,47288,2,1,3,9
87595437000000,87595937000000,500.0,4096,68,67,1821139,1821205,14569654043,14570182045,331,47356,2,1,3,9
87595968000000,87596468000000,500.0,4096,67,67,1821206,1821272,14570190043,14570718045,154,47423,2,1,3,9
87596484000000,87597000000000,516.0,4096,67,66,1821273,1821338,14570726043,14571246044,1695,47490,2,1,3,9
87597218000000,87597515000000,297.0,4096,67,65,1821339,1821403,14571254044,14571766045,259,47557,2,1,3,9
87597562000000,87598062000000,500.0,4096,67,67,1821404,1821470,14571774046,14572302043,407,47624,2,1,3,9
87598109000000,87598593000000,484.0,4096,67,66,1821471,1821536,14572310046,14572830043,247,47691,2,1,3,9
87598609000000,87599109000000,500.0,4096,66,65,1821537,1821601,14572838043,14573350043,169,47757,2,1,3,9
87599125000000,87599640000000,515.0,4096,68,67,1821602,1821668,14573358043,14573886046,263,47825,2,1,3,9
87599671000000,87600171000000,500.0,4096,66,66,1821669,1821734,14573894047,14574414043,183,47891,2,1,3,9
87600203000000,87600687000000,484.0,4096,67,66,1821735,1821800,14574422044,14574942043,258,47958,2,1,3,9
87600718000000,87601218000000,500.0,4096,67,66,1821801,1821866,14574950043,14575470045,239,48025,2,1,3,9
87601250000000,87601750000000,500.0,4096,67,66,1821867,1821932,14575478043,14575998047,246,48092,2,1,3,9
87601781000000,87602281000000,500.0,4096,65,65,1821933,1821997,14576006043,14576518044,230,48157,2,1,3,9
87602296000000,87602812000000,516.0,4096,69,67,1821998,1822064,14576526043,14577054045,154,48226,2,1,3,9
87602828000000,87603343000000,515.0,4096,68,67,1822065,1822131,14577062043,14577590045,326,48294,2,1,3,9
87603390000000,87603875000000,485.0,4096,67,67,1822132,1822198,14577598043,14578126044,254,48361,2,1,3,9
87603921000000,87604421000000,500.0,4096,68,67,1822199,1822265,14578134045,14578662045,218,48429,2,1,3,9
87604453000000,87604953000000,500.0,4096,68,67,1822266,1822332,14578670043,14579198046,290,48497,2,1,3,9
87604984000000,87605484000000,500.0,4096,67,67,1822333,1822399,14579206043,14579734044,262,48564,2,1,3,9
87605515000000,87606015000000,500.0,4096,68,67,1822400,1822466,14579742047,14580270043,240,48632,2,1,3,9
87606046000000,87606546000000,500.0,4096,67,66,1822467,1822532,14580278043,14580798046,323,48699,2,1,3,9
87606593000000,87607078000000,485.0,4096,67,67,1822533,1822599,14580806044,14581334045,332,48766,2,1,3,9
87607125000000,87607609000000,484.0,4096,68,66,1822600,1822665,14581342044,14581862043,184,48834,2,1,3,9
87607640000000,87608140000000,500.0,4096,67,66,1822666,1822731,14581870043,14582390044,229,48901,2,1,3,9
87608171000000,87608671000000,500.0,4096,67,66,1822732,1822797,14582398043,14582918043,173,48968,2,1,3,9
87608687000000,87609203000000,516.0,4096,68,67,1822798,1822864,14582926047,14583454043,269,49036,2,1,3,9
87609250000000,87609734000000,484.0,4096,68,67,1822865,1822931,14583462043,14583990047,208,49104,2,1,3,9
87609765000000,87610281000000,516.0,4096,67,67,1822932,1822998,14583998045,14584526043,248,49171,2,1,3,9
87610312000000,87610812000000,500.0,4096,67,66,1822999,1823064,14584534045,14585054047,221,49238,2,1,3,9
87610843000000,87611343000000,500.0,4096,67,66,1823065,1823130,14585062043,14585582044,222,49305,2,1,3,9
87611375000000,87611859000000,484.0,4096,67,66,1823131,1823196,14585590045,14586110043,195,49372,2,1,3,9
87611890000000,87612390000000,500.0,4096,66,65,1823197,1823261,14586118047,14586630043,231,49438,2,1,3,9
87612421000000,87612906000000,485.0,4096,66,65,1823262,1823326,14586638043,14587150043,159,49504,2,1,3,9
87612921000000,87613421000000,500.0,4096,67,66,1823327,1823392,14587158045,14587678043,232,49571,2,1,3,9
87613453000000,87613968000000,515.0,4096,66,66,1823393,1823458,14587686047,14588206047,246,49637,2,1,3,9
87613984000000,87614484000000,500.0,4096,66,65,1823459,1823523,14588214043,14588726047,186,49703,2,1,3,9
87614515000000,87615000000000,485.0,4096,67,66,1823524,1823589,14588734043,14589254047,321,49770,2,1,3,9
87615046000000,87615546000000,500.0,4096,67,67,1823590,1823656,14589262046,14589790045,170,49837,2,1,3,9
87615562000000,87616062000000,500.0,4096,66,65,1823657,1823721,14589798047,14590310046,222,49903,2,1,3,9
87616093000000,87616593000000,500.0,4096,66,65,1823722,1823786,14590318043,14590830047,392,49969,2,1,3,9
87616640000000,87617125000000,485.0,4096,67,67,1823787,1823853,14590838043,14591366046,328,50036,2,1,3,9
87617156000000,87617640000000,484.0,4096,67,65,1823854,1823918,14591374043,14591886043,1757,50103,2,1,3,9
87617859000000,87618156000000,297.0,4096,66,65,1823919,1823983,14591894047,14592406050,229,50169,2,1,3,9
87618187000000,87618687000000,500.0,4096,66,66,1823984,1824049,14592414043,14592934043,250,50235,2,1,3,9
87618718000000,87619203000000,485.0,4096,66,65,1824050,1824114,14592942043,14593454043,219,50301,2,1,3,9
87619234000000,87619734000000,500.0,4096,67,66,1824115,1824180,14593462043,14593982047,236,50368,2,1,3,9
87619765000000,87620265000000,500.0,4096,66,66,1824181,1824246,14593990043,14594510043,269,50434,2,1,3,9
87620296000000,87620781000000,485.0,4096,66,65,1824247,1824311,14594518043,14595030046,166,50500,2,1,3,9
87620812000000,87621312000000,500.0,4096,66,65,1824312,1824376,14595038046,14595550043,254,50566,2,1,3,9
87621343000000,87621843000000,500.0,4096,68,67,1824377,1824443,14595558043,14596086047,332,50634,2,1,3,9
87621875000000,87622359000000,484.0,4096,67,66,1824444,1824509,14596094043,14596614044,247,50701,2,1,3,9
87622390000000,87622906000000,516.0,4096,68,67,1824510,1824576,14596622047,14597150043,238,50769,2,1,3,9
87622937000000,87623421000000,484.0,4096,67,66,1824577,1824642,14597158046,14597678043,218,50836,2,1,3,9
87623453000000,87623968000000,515.0,4096,68,67,1824643,1824709,14597686047,14598214043,227,50904,2,1,3,9
87624000000000,87624500000000,500.0,4096,67,67,1824710,1824776,14598222045,14598750043,337,50971,2,1,3,9
87624546000000,87625031000000,485.0,4096,67,66,1824777,1824842,14598758043,14599278046,185,51038,2,1,3,9
87625062000000,87625562000000,500.0,4096,68,67,1824843,1824909,14599286043,14599814043,275,51106,2,1,3,9
87625593000000,87626093000000,500.0,4096,67,66,1824910,1824975,14599822043,14600342043,282,51173,2,1,3,9
87626140000000,87626640000000,500.0,4096,67,67,1824976,1825042,14600350043,14600878043,396,51240,2,1,3,9
87626687000000,87627171000000,484.0,4096,68,67,1825043,1825109,14600886043,14601414045,237,51308,2,1,3,9
87627203000000,87627703000000,500.0,4096,69,67,1825110,1825176,14601422044,14601950044,162,51377,2,1,3,9
87627718000000,87628234000000,516.0,4096,67,66,1825177,1825242,14601958045,14602478043,235,51444,2,1,3,9
87628265000000,87628765000000,500.0,4096,68,67,1825243,1825309,14602486046,14603014045,244,51512,2,1,3,9
87628796000000,87629296000000,500.0,4096,68,67,1825310,1825376,14603022047,14603550047,149,51580,2,1,3,9
87629328000000,87629828000000,500.0,4096,67,66,1825377,1825442,14603558045,14604078046,227,51647,2,1,3,9
87629859000000,87630375000000,516.0,4096,68,68,1825443,1825510,14604086043,14604622043,199,51715,2,1,3,9
87630406000000,87630906000000,500.0,4096,67,66,1825511,1825576,14604630047,14605150045,281,51782,2,1,3,9
87630937000000,87631437000000,500.0,4096,68,67,1825577,1825643,14605158045,14605686043,260,51850,2,1,3,9
87631468000000,87631968000000,500.0,4096,67,67,1825644,1825710,14605694043,14606222043,318,51917,2,1,3,9
87632015000000,87632500000000,485.0,4096,68,66,1825711,1825776,14606230045,14606750044,232,51985,2,1,3,9
87632531000000,87633031000000,500.0,4096,67,66,1825777,1825842,14606758043,14607278044,215,52052,2,1,3,9
87633062000000,87633578000000,516.0,4096,68,68,1825843,1825910,14607286043,14607822046,336,52120,2,1,3,9
87633609000000,87634109000000,500.0,4096,67,66,1825911,1825976,14607830043,14608350043,264,52187,2,1,3,9
87634140000000,87634640000000,500.0,4096,68,67,1825977,1826043,14608358043,14608886047,329,52255,2,1,3,9
87634671000000,87635171000000,500.0,4096,67,66,1826044,1826109,14608894046,14609414043,229,52322,2,1,3,9
87635203000000,87635703000000,500.0,4096,68,68,1826110,1826177,14609422047,14609958044,241,52390,2,1,3,9
87635734000000,87636234000000,500.0,4096,67,66,1826178,1826243,14609966043,14610486044,157,52457,2,1,3,9
87636265000000,87636765000000,500.0,4096,67,66,1826244,1826309,14610494045,14611014043,352,52524,2,1,3,9
87636812000000,87637296000000,484.0,4096,66,66,1826310,1826375,14611022046,14611542045,221,52590,2,1,3,9
87637328000000,87637828000000,500.0,4096,67,66,1826376,1826441,14611550047,14612070043,1637,52657,2,1,3,9
87638031000000,87638343000000,312.0,4096,66,65,1826442,1826506,14612078043,14612590047,228,52723,2,1,3,9
87638375000000,87638875000000,500.0,4096,66,66,1826507,1826572,14612598047,14613118045,183,52789,2,1,3,9
87638890000000,87639406000000,516.0,4096,67,66,1826573,1826638,14613126045,14613646044,257,52856,2,1,3,9
87639437000000,87639921000000,484.0,4096,66,66,1826639,1826704,14613654046,14614174047,253,52922,2,1,3,9
87639953000000,87640453000000,500.0,4096,66,65,1826705,1826769,14614182044,14614694046,208,52988,2,1,3,9
87640468000000,87640968000000,500.0,4096,67,66,1826770,1826835,14614702047,14615222046,267,53055,2,1,3,9
87641015000000,87641500000000,485.0,4096,66,65,1826836,1826900,14615230043,14615742043,178,53121,2,1,3,9
87641515000000,87642031000000,516.0,4096,67,67,1826901,1826967,14615750045,14616278046,292,53188,2,1,3,9
87642078000000,87642562000000,484.0,4096,68,66,1826968,1827033,14616286045,14616806045,165,53256,2,1,3,9
87642578000000,87643093000000,515.0,4096,68,67,1827034,1827100,14616814043,14617342043,235,53324,2,1,3,9
87643125000000,87643625000000,500.0,4096,67,66,1827101,1827166,14617350043,14617870047,277,53391,2,1,3,9
87643656000000,87644156000000,500.0,4096,67,67,1827167,1827233,14617878043,14618406046,280,53458,2,1,3,9
87644203000000,87644687000000,484.0,4096,68,67,1827234,1827300,14618414043,14618942043,321,53526,2,1,3,9
87644734000000,87645218000000,484.0,4096,67,66,1827301,1827366,14618950043,14619470043,299,53593,2,1,3,9
87645265000000,87645765000000,500.0,4096,68,68,1827367,1827434,14619478046,14620014046,208,53661,2,1,3,9
87645796000000,87646296000000,500.0,4096,67,66,1827435,1827500,14620022045,14620542043,265,53728,2,1,3,9
87646328000000,87646828000000,500.0,4096,67,66,1827501,1827566,14620550043,14621070046,304,53795,2,1,3,9
87646875000000,87647359000000,484.0,4096,68,68,1827567,1827634,14621078046,14621614047,203,53863,2,1,3,9
87647390000000,87647890000000,500.0,4096,68,66,1827635,1827700,14621622045,14622142043,403,53931,2,1,3,9
87647953000000,87648421000000,468.0,4096,68,66,1827701,1827766,14622150045,14622670044,363,53999,2,1,3,9
87648468000000,87648953000000,485.0,4096,67,67,1827767,1827833,14622678043,14623206043,245,54066,2,1,3,9
87648984000000,87649484000000,500.0,4096,67,66,1827834,1827899,14623214047,14623734046,229,54133,2,1,3,9
87649515000000,87650015000000,500.0,4096,68,67,1827900,1827966,14623742043,14624270046,182,54201,2,1,3,9
87650046000000,87650546000000,500.0,4096,66,66,1827967,1828032,14624278043,14624798043,216,54267,2,1,3,9
87650578000000,87651093000000,515.0,4096,68,67,1828033,1828099,14624806043,14625334044,321,54335,2,1,3,9
87651125000000,87651625000000,500.0,4096,68,67,1828100,1828166,14625342043,14625870047,250,54403,2,1,3,9
87651656000000,87652156000000,500.0,4096,67,67,1828167,1828233,14625878043,14626406044,263,54470,2,1,3,9
87652187000000,87652687000000,500.0,4096,68,66,1828234,1828299,14626414045,14626934043,318,54538,2,1,3,9
87652734000000,87653218000000,484.0,4096,68,67,1828300,1828366,14626942043,14627470047,229,54606,2,1,3,9
87653250000000,87653750000000,500.0,4096,67,66,1828367,1828432,14627478043,14627998043,235,54673,2,1,3,9
87653781000000,87654296000000,515.0,4096,67,67,1828433,1828499,14628006043,14628534047,162,54740,2,1,3,9
87654312000000,87654828000000,516.0,4096,68,67,1828500,1828566,14628542043,14629070046,300,54808,2,1,3,9
87654859000000,87655359000000,500.0,4096,67,66,1828567,1828632,14629078043,14629598045,249,54875,2,1,3,9
87655390000000,87655890000000,500.0,4096,67,67,1828633,1828699,14629606043,14630134043,249,54942,2,1,3,9
87655921000000,87656421000000,500.0,4096,68,67,1828700,1828766,14630142043,14630670044,227,55010,2,1,3,9
87656453000000,87656953000000,500.0,4096,68,67,1828767,1828833,14630678043,14631206043,355,55078,2,1,3,9
87657000000000,87657484000000,484.0,4096,67,66,1828834,1828899,14631214043,14631734043,196,55145,2,1,3,9
87657515000000,87658031000000,516.0,4096,68,67,1828900,1828966,14631742043,14632270043,1873,55213,2,1,3,9
87658265000000,87658546000000,281.0,4096,68,67,1828967,1829033,14632278043,14632806043,154,55281,2,1,3,9
87658578000000,87659093000000,515.0,4096,67,67,1829034,1829100,14632814046,14633342045,296,55348,2,1,3,9
87659125000000,87659625000000,500.0,4096,67,66,1829101,1829166,14633350043,14633870046,260,55415,2,1,3,9
87659656000000,87660156000000,500.0,4096,68,67,1829167,1829233,14633878046,14634406043,187,55483,2,1,3,9
87660187000000,87660703000000,516.0,4096,67,67,1829234,1829300,14634414043,14634942043,285,55550,2,1,3,9
87660734000000,87661218000000,484.0,4096,68,67,1829301,1829367,14634950043,14635478047,372,55618,2,1,3,9
87661281000000,87661765000000,484.0,4096,67,66,1829368,1829433,14635486044,14636006044,194,55685,2,1,3,9
87661781000000,87662296000000,515.0,4096,68,67,1829434,1829500,14636014044,14636542046,271,55753,2,1,3,9
87662328000000,87662828000000,500.0,4096,67,66,1829501,1829566,14636550047,14637070043,211,55820,2,1,3,9
87662843000000,87663359000000,516.0,4096,68,67,1829567,1829633,14637078045,14637606047,204,55888,2,1,3,9
87663390000000,87663890000000,500.0,4096,67,66,1829634,1829699,14637614047,14638134043,236,55955,2,1,3,9
87663921000000,87664421000000,500.0,4096,67,67,1829700,1829766,14638142043,14638670046,157,56022,2,1,3,9
87664437000000,87664953000000,516.0,4096,68,67,1829767,1829833,14638678043,14639206043,308,56090,2,1,3,9
87665000000000,87665484000000,484.0,4096,67,66,1829834,1829899,14639214047,14639734045,231,56157,2,1,3,9
87665515000000,87666031000000,516.0,4096,67,67,1829900,1829966,14639742045,14640270043,212,56224,2,1,3,9
87666046000000,87666546000000,500.0,4096,68,67,1829967,1830033,14640278043,14640806043,243,56292,2,1,3,9
87666593000000,87667093000000,500.0,4096,67,66,1830034,1830099,14640814043,14641334044,265,56359,2,1,3,9
87667125000000,87667625000000,500.0,4096,68,66,1830100,1830165,14641342043,14641862043,182,56427,2,1,3,9
87667640000000,87668156000000,516.0,4096,67,67,1830166,1830232,14641870043,14642398043,261,56494,2,1,3,9
87668187000000,87668671000000,484.0,4096,68,66,1830233,1830298,14642406043,14642926045,197,56562,2,1,3,9
87668703000000,87669218000000,515.0,4096,68,67,1830299,1830365,14642934043,14643462043,363,56630,2,1,3,9
87669265000000,87669750000000,485.0,4096,67,67,1830366,1830432,14643470043,14643998043,331,56697,2,1,3,9
87669781000000,87670281000000,500.0,4096,67,66,1830433,1830498,14644006043,14644526043,176,56764,2,1,3,9
87670296000000,87670812000000,516.0,4096,67,66,1830499,1830564,14644534043,14645054043,267,56831,2,1,3,9
87670843000000,87671343000000,500.0,4096,67,67,1830565,1830631,14645062043,14645590043,216,56898,2,1,3,9
87671359000000,87671859000000,500.0,4096,66,65,1830632,1830696,14645598043,14646110043,281,56964,2,1,3,9
87671890000000,87672375000000,485.0,4096,67,65,1830697,1830761,14646118043,14646630046,240,57031,2,1,3,9
87672406000000,87672906000000,500.0,4096,66,65,1830762,1830826,14646638043,14647150043,189,57097,2,1,3,9
87672937000000,87673437000000,500.0,4096,67,66,1830827,1830892,14647158046,14647678043,241,57164,2,1,3,9
87673468000000,87673953000000,485.0,4096,66,66,1830893,1830958,14647686043,14648206044,171,57230,2,1,3,9
87673984000000,87674484000000,500.0,4096,66,65,1830959,1831023,14648214047,14648726043,235,57296,2,1,3,9
87674515000000,87675000000000,485.0,4096,67,66,1831024,1831089,14648734046,14649254043,237,57363,2,1,3,9
87675031000000,87675546000000,515.0,4096,67,67,1831090,1831156,14649262045,14649790044,260,57430,2,1,3,9
87675578000000,87676078000000,500.0,4096,68,67,1831157,1831223,14649798043,14650326043,235,57498,2,1,3,9
87676109000000,87676609000000,500.0,4096,67,67,1831224,1831290,14650334045,14650862043,180,57565,2,1,3,9
87676640000000,87677140000000,500.0,4096,67,66,1831291,1831356,14650870043,14651390043,256,57632,2,1,3,9
87677187000000,87677671000000,484.0,4096,68,66,1831357,1831422,14651398044,14651918046,272,57700,2,1,3,9
87677703000000,87678218000000,515.0,4096,68,68,1831423,1831490,14651926043,14652462047,1972,57768,2,1,3,9
87678453000000,87678734000000,281.0,4096,66,65,1831491,1831555,14652470043,14652982046,334,57834,2,1,3,9
87678781000000,87679265000000,484.0,4096,66,65,1831556,1831620,14652990043,14653502043,258,57900,2,1,3,9
87679296000000,87679796000000,500.0,4096,67,67,1831621,1831687,14653510047,14654038043,312,57967,2,1,3,9
87679828000000,87680312000000,484.0,4096,66,65,1831688,1831752,14654046043,14654558043,240,58033,2,1,3,9
87680343000000,87680828000000,485.0,4096,66,65,1831753,1831817,14654566045,14655078043,256,58099,2,1,3,9
87680859000000,87681359000000,500.0,4096,67,67,1831818,1831884,14655086043,14655614047,293,58166,2,1,3,9
87681406000000,87681890000000,484.0,4096,66,66,1831885,1831950,14655622043,14656142043,289,58232,2,1,3,9
87681937000000,87682421000000,484.0,4096,67,65,1831951,1832015,14656150043,14656662045,199,58299,2,1,3,9
87682437000000,87682937000000,500.0,4096,66,66,1832016,1832081,14656670044,14657190047,265,58365,2,1,3,9
87682968000000,87683468000000,500.0,4096,67,66,1832082,1832147,14657198043,14657718043,171,58432,2,1,3,9
87683500000000,87684015000000,515.0,4096,68,67,1832148,1832214,14657726046,14658254043,294,58500,2,1,3,9
87684046000000,87684531000000,485.0,4096,67,66,1832215,1832280,14658262044,14658782043,251,58567,2,1,3,9
87684578000000,87685078000000,500.0,4096,68,68,1832281,1832348,14658790046,14659326043,330,58635,2,1,3,9
87685125000000,87685609000000,484.0,4096,67,66,1832349,1832414,14659334043,14659854045,248,58702,2,1,3,9
87685640000000,87686156000000,516.0,4096,68,68,1832415,1832482,14659862046,14660398043,246,58770,2,1,3,9
87686187000000,87686687000000,500.0,4096,67,66,1832483,1832548,14660406043,14660926047,248,58837,2,1,3,9
87686718000000,87687218000000,500.0,4096,68,67,1832549,1832615,14660934044,14661462046,327,58905,2,1,3,9
87687250000000,87687750000000,500.0,4096,68,67,1832616,1832682,14661470045,14661998047,375,58973,2,1,3,9
87687796000000,87688281000000,485.0,4096,67,66,1832683,1832748,14662006043,14662526047,324,59040,2,1,3,9
87688312000000,87688812000000,500.0,4096,68,67,1832749,1832815,14662534043,14663062043,225,59108,2,1,3,9
87688843000000,87689343000000,500.0,4096,68,67,1832816,1832882,14663070043,14663598046,284,59176,2,1,3,9
87689390000000,87689875000000,485.0,4096,67,66,1832883,1832948,14663606043,14664126047,300,59243,2,1,3,9
87689921000000,87690421000000,500.0,4096,68,68,1832949,1833016,14664134043,14664670043,307,59311,2,1,3,9
87690453000000,87690953000000,500.0,4096,67,66,1833017,1833082,14664678043,14665198047,184,59378,2,1,3,9
87690968000000,87691484000000,516.0,4096,67,67,1833083,1833149,14665206045,14665734046,346,59445,2,1,3,9
87691531000000,87692015000000,484.0,4096,68,67,1833150,1833216,14665742045,14666270043,314,59513,2,1,3,9
87692062000000,87692546000000,484.0,4096,68,66,1833217,1833282,14666278043,14666798043,176,59581,2,1,3,9
87692578000000,87693093000000,515.0,4096,67,67,1833283,1833349,14666806045,14667334043,230,59648,2,1,3,9
87693125000000,87693625000000,500.0,4096,67,66,1833350,1833415,14667342043,14667862043,159,59715,2,1,3,9
87693640000000,87694156000000,516.0,4096,68,67,1833416,1833482,14667870043,14668398043,223,59783,2,1,3,9
87694171000000,87694687000000,516.0,4096,67,67,1833483,1833549,14668406045,14668934043,245,59850,2,1,3,9
87694718000000,87695218000000,500.0,4096,68,67,1833550,1833616,14668942044,14669470047,174,59918,2,1,3,9
87695250000000,87695750000000,500.0,4096,67,67,1833617,1833683,14669478043,14670006047,409,59985,2,1,3,9
87695812000000,87696296000000,484.0,4096,67,66,1833684,1833749,14670014043,14670534043,283,60052,2,1,3,9
87696328000000,87696828000000,500.0,4096,68,67,1833750,1833816,14670542043,14671070043,228,60120,2,1,3,9
87696859000000,87697359000000,500.0,4096,67,67,1833817,1833883,14671078043,14671606043,285,60187,2,1,3,9
87697390000000,87697875000000,485.0,4096,67,65,1833884,1833948,14671614044,14672126046,179,60254,2,1,3,9
87697906000000,87698406000000,500.0,4096,67,66,1833949,1834014,14672134047,14672654043,239,60321,2,1,3,9
87698437000000,87698937000000,500.0,4096,66,66,1834015,1834080,14672662043,14673182043,1784,60387,2,1,3,9
87699171000000,87699468000000,297.0,4096,66,66,1834081,1834146,14673190047,14673710043,208,60453,2,1,3,9
87699484000000,87700000000000,516.0,4096,67,67,1834147,1834213,14673718045,14674246044,315,60520,2,1,3,9
87700031000000,87700515000000,484.0,4096,66,65,1834214,1834278,14674254043,14674766047,188,60586,2,1,3,9
87700546000000,87701046000000,500.0,4096,66,65,1834279,1834343,14674774044,14675286046,235,60652,2,1,3,9
87701078000000,87701562000000,484.0,4096,67,66,1834344,1834409,14675294043,14675814045,243,60719,2,1,3,9
87701593000000,87702093000000,500.0,4096,66,66,1834410,1834475,14675822045,14676342044,220,60785,2,1,3,9
87702125000000,87702609000000,484.0,4096,67,65,1834476,1834540,14676350043,14676862043,241,60852,2,1,3,9
87702640000000,87703140000000,500.0,4096,66,65,1834541,1834605,14676870044,14677382047,254,60918,2,1,3,9
87703171000000,87703671000000,500.0,4096,67,67,1834606,1834672,14677390043,14677918043,296,60985,2,1,3,9
87703718000000,87704203000000,485.0,4096,68,67,1834673,1834739,14677926043,14678454043,209,61053,2,1,3,9
87704234000000,87704750000000,516.0,4096,67,67,1834740,1834806,14678462043,14678990043,264,61120,2,1,3,9
87704781000000,87705281000000,500.0,4096,68,67,1834807,1834873,14678998043,14679526043,242,61188,2,1,3,9
87705312000000,87705812000000,500.0,4096,67,66,1834874,1834939,14679534043,14680054045,343,61255,2,1,3,9
87705859000000,87706343000000,484.0,4096,67,67,1834940,1835006,14680062043,14680590047,294,61322,2,1,3,9
87706375000000,87706875000000,500.0,4096,68,67,1835007,1835073,14680598043,14681126043,290,61390,2,1,3,9
87706921000000,87707406000000,485.0,4096,68,66,1835074,1835139,14681134043,14681654046,170,61458,2,1,3,9
87707421000000,87707937000000,516.0,4096,67,66,1835140,1835205,14681662046,14682182044,347,61525,2,1,3,9
87707984000000,87708468000000,484.0,4096,68,67,1835206,1835272,14682190045,14682718043,274,61593,2,1,3,9
87708500000000,87709000000000,500.0,4096,67,66,1835273,1835338,14682726043,14683246043,186,61660,2,1,3,9
87709031000000,87709531000000,500.0,4096,67,66,1835339,1835404,14683254043,14683774043,251,61727,2,1,3,9
87709562000000,87710062000000,500.0,4096,67,66,1835405,1835470,14683782043,14684302043,354,61794,2,1,3,9
87710093000000,87710593000000,500.0,4096,67,67,1835471,1835537,14684310043,14684838043,261,61861,2,1,3,9
87710625000000,87711109000000,484.0,4096,66,65,1835538,1835602,14684846047,14685358044,260,61927,2,1,3,9
87711156000000,87711640000000,484.0,4096,66,65,1835603,1835667,14685366043,14685878043,184,61993,2,1,3,9
87711656000000,87712171000000,515.0,4096,67,67,1835668,1835734,14685886043,14686414043,295,62060,2,1,3,9
87712203000000,87712687000000,484.0,4096,67,65,1835735,1835799,14686422046,14686934044,295,62127,2,1,3,9
87712718000000,87713203000000,485.0,4096,66,65,1835800,1835864,14686942047,14687454043,256,62193,2,1,3,9
87713250000000,87713734000000,484.0,4096,67,66,1835865,1835930,14687462046,14687982044,296,62260,2,1,3,9
87713781000000,87714265000000,484.0,4096,67,67,1835931,1835997,14687990043,14688518046,156,62327,2,1,3,9
87714296000000,87714796000000,500.0,4096,67,66,1835998,1836063,14688526043,14689046043,251,62394,2,1,3,9
87714828000000,87715343000000,515.0,4096,68,67,1836064,1836130,14689054043,14689582046,277,62462,2,1,3,9
87715375000000,87715875000000,500.0,4096,68,67,1836131,1836197,14689590043,14690118043,305,62530,2,1,3,9
87715906000000,87716406000000,500.0,4096,67,67,1836198,1836264,14690126043,14690654043,253,62597,2,1,3,9
87716437000000,87716937000000,500.0,4096,68,67,1836265,1836331,14690662043,14691190047,260,62665,2,1,3,9
87716968000000,87717468000000,500.0,4096,68,66,1836332,1836397,14691198045,14691718043,401,62733,2,1,3,9
87717515000000,87718000000000,485.0,4096,68,67,1836398,1836464,14691726045,14692254044,264,62801,2,1,3,9
87718031000000,87718531000000,500.0,4096,67,66,1836465,1836530,14692262043,14692782043,201,62868,2,1,3,9
87718562000000,87719078000000,516.0,4096,67,67,1836531,1836597,14692790045,14693318046,1941,62935,2,1,3,9
87719328000000,87719609000000,281.0,4096,68,67,1836598,1836664,14693326044,14693854047,208,63003,2,1,3,9
87719640000000,87720140000000,500.0,4096,67,66,1836665,1836730,14693862045,14694382044,314,63070,2,1,3,9
87720171000000,87720671000000,500.0,4096,68,67,1836731,1836797,14694390044,14694918043,242,63138,2,1,3,9
87720703000000,87721203000000,500.0,4096,67,67,1836798,1836864,14694926045,14695454043,238,63205,2,1,3,9
87721234000000,87721734000000,500.0,4096,67,66,1836865,1836930,14695462043,14695982047,315,63272,2,1,3,9
87721781000000,87722265000000,484.0,4096,68,67,1836931,1836997,14695990046,14696518043,248,63340,2,1,3,9
87722296000000,87722796000000,500.0,4096,68,66,1836998,1837063,14696526043,14697046045,175,63408,2,1,3,9
87722828000000,87723343000000,515.0,4096,67,67,1837064,1837130,14697054043,14697582043,368,63475,2,1,3,9
87723390000000,87723875000000,485.0,4096,68,67,1837131,1837197,14697590043,14698118047,234,63543,2,1,3,9
87723906000000,87724406000000,500.0,4096,67,66,1837198,1837263,14698126044,14698646043,330,63610,2,1,3,9
87724437000000,87724937000000,500.0,4096,68,67,1837264,1837330,14698654045,14699182044,227,63678,2,1,3,9
87724968000000,87725468000000,500.0,4096,67,66,1837331,1837396,14699190043,14699710047,197,63745,2,1,3,9
87725484000000,87726000000000,516.0,4096,67,67,1837397,1837463,14699718047,14700246043,341,63812,2,1,3,9
87726046000000,87726531000000,485.0,4096,67,66,1837464,1837529,14700254043,14700774043,221,63879,2,1,3,9
87726562000000,87727062000000,500.0,4096,67,66,1837530,1837595,14700782043,14701302047,247,63946,2,1,3,9
87727093000000,87727609000000,516.0,4096,71,69,1837596,1837664,14701310047,14701854043,222,64017,2,1,3,9
87727640000000,87728171000000,531.0,4096,70,70,1837665,1837734,14701862046,14702414045,232,64087,2,1,3,9
87728203000000,87728734000000,531.0,4096,71,70,1837735,1837804,14702422043,14702974043,181,64158,2,1,3,9
87728750000000,87729296000000,546.0,4096,71,71,1837805,1837875,14702982043,14703542043,225,64229,2,1,3,9
87729328000000,87729859000000,531.0,4096,72,71,1837876,1837946,14703550043,14704110043,306,64301,2,1,3,9
87729906000000,87730406000000,500.0,4096,69,68,1837947,1838014,14704118045,14704654047,268,64370,2,1,3,9
87730453000000,87730937000000,484.0,4096,67,67,1838015,1838081,14704662043,14705190043,149,64437,2,1,3,9
87730968000000,87731484000000,516.0,4096,68,67,1838082,1838148,14705198044,14705726045,308,64505,2,1,3,9
87731515000000,87732015000000,500.0,4096,68,67,1838149,1838215,14705734046,14706262043,420,64573,2,1,3,9
87732062000000,87732546000000,484.0,4096,67,66,1838216,1838281,14706270043,14706790043,179,64640,2,1,3,9
87732562000000,87733078000000,516.0,4096,67,66,1838282,1838347,14706798043,14707318043,258,64707,2,1,3,9
87733109000000,87733609000000,500.0,4096,68,67,1838348,1838414,14707326043,14707854043,197,64775,2,1,3,9
87733640000000,87734140000000,500.0,4096,67,67,1838415,1838481,14707862043,14708390043,271,64842,2,1,3,9
87734171000000,87734671000000,500.0,4096,68,67,1838482,1838548,14708398045,14708926043,279,64910,2,1,3,9
87734703000000,87735203000000,500.0,4096,67,66,1838549,1838614,14708934045,14709454043,215,64977,2,1,3,9
87735234000000,87735734000000,500.0,4096,67,66,1838615,1838680,14709462043,14709982043,291,65044,2,1,3,9
87735781000000,87736281000000,500.0,4096,67,67,1838681,1838747,14709990043,14710518045,290,65111,2,1,3,9
87736312000000,87736812000000,500.0,4096,68,67,1838748,1838814,14710526043,14711054045,294,65179,2,1,3,9
87736843000000,87737343000000,500.0,4096,67,66,1838815,1838880,14711062047,14711582043,319,65246,2,1,3,9
87737375000000,87737875000000,500.0,4096,68,67,1838881,1838947,14711590043,14712118043,310,65314,2,1,3,9
87737906000000,87738406000000,500.0,4096,67,66,1838948,1839013,14712126043,14712646043,345,65381,2,1,3,9
87738453000000,87738937000000,484.0,4096,68,67,1839014,1839080,14712654043,14713182043,1964,65449,2,1,3,9
87739187000000,87739468000000,281.0,4096,67,67,1839081,1839147,14713190043,14713718043,256,65516,2,1,3,9
87739500000000,87740000000000,500.0,4096,68,67,1839148,1839214,14713726045,14714254045,230,65584,2,1,3,9
87740031000000,87740531000000,500.0,4096,66,65,1839215,1839279,14714262043,14714774044,156,65650,2,1,3,9
87740546000000,87741062000000,516.0,4096,67,66,1839280,1839345,14714782043,14715302043,259,65717,2,1,3,9
87741093000000,87741593000000,500.0,4096,67,67,1839346,1839412,14715310044,14715838043,325,65784,2,1,3,9
87741640000000,87742109000000,469.0,4096,66,65,1839413,1839477,14715846043,14716358043,259,65850,2,1,3,9
87742140000000,87742640000000,500.0,4096,67,65,1839478,1839542,14716366043,14716878046,302,65917,2,1,3,9
87742671000000,87743156000000,485.0,4096,67,66,1839543,1839608,14716886046,14717406047,186,65984,2,1,3,9
87743187000000,87743687000000,500.0,4096,66,66,1839609,1839674,14717414043,14717934043,309,66050,2,1,3,9
87743734000000,87744203000000,469.0,4096,66,65,1839675,1839739,14717942043,14718454043,174,66116,2,1,3,9
87744234000000,87744734000000,500.0,4096,67,66,1839740,1839805,14718462047,14718982043,218,66183,2,1,3,9
87744765000000,87745265000000,500.0,4096,67,67,1839806,1839872,14718990043,14719518047,249,66250,2,1,3,9
87745312000000,87745796000000,484.0,4096,67,66,1839873,1839938,14719526043,14720046043,238,66317,2,1,3,9
87745828000000,87746343000000,515.0,4096,67,67,1839939,1840005,14720054043,14720582046,265,66384,2,1,3,9
87746375000000,87746875000000,500.0,4096,68,67,1840006,1840072,14720590047,14721118043,291,66452,2,1,3,9
87746906000000,87747406000000,500.0,4096,68,66,1840073,1840138,14721126043,14721646045,322,66520,2,1,3,9
87747437000000,87747937000000,500.0,4096,67,66,1840139,1840204,14721654043,14722174043,388,66587,2,1,3,9
87747984000000,87748468000000,484.0,4096,68,67,1840205,1840271,14722182045,14722710046,181,66655,2,1,3,9
87748484000000,87749000000000,516.0,4096,67,66,1840272,1840337,14722718047,14723238043,232,66722,2,1,3,9
87749031000000,87749515000000,484.0,4096,67,66,1840338,1840403,14723246044,14723766043,246,66789,2,1,3,9
87749562000000,87750062000000,500.0,4096,67,67,1840404,1840470,14723774043,14724302047,282,66856,2,1,3,9
87750093000000,87750593000000,500.0,4096,69,68,1840471,1840538,14724310043,14724846044,304,66925,2,1,3,9
87750640000000,87751125000000,485.0,4096,67,66,1840539,1840604,14724854043,14725374043,179,66992,2,1,3,9
87751156000000,87751656000000,500.0,4096,67,67,1840605,1840671,14725382043,14725910043,352,67059,2,1,3,9
87751703000000,87752187000000,484.0,4096,67,66,1840672,1840737,14725918045,14726438046,322,67126,2,1,3,9
87752234000000,87752718000000,484.0,4096,69,67,1840738,1840804,14726446047,14726974043,167,67195,2,1,3,9
87752750000000,87753250000000,500.0,4096,67,66,1840805,1840870,14726982043,14727502043,216,67262,2,1,3,9
87753281000000,87753796000000,515.0,4096,67,67,1840871,1840937,14727510043,14728038043,308,67329,2,1,3,9
87753828000000,87754328000000,500.0,4096,68,67,1840938,1841004,14728046043,14728574044,206,67397,2,1,3,9
87754359000000,87754859000000,500.0,4096,67,66,1841005,1841070,14728582043,14729102043,309,67464,2,1,3,9
87754890000000,87755390000000,500.0,4096,67,67,1841071,1841137,14729110043,14729638043,470,67531,2,1,3,9
87755453000000,87755921000000,468.0,4096,67,66,1841138,1841203,14729646047,14730166043,250,67598,2,1,3,9
87755953000000,87756453000000,500.0,4096,68,67,1841204,1841270,14730174043,14730702047,252,67666,2,1,3,9
87756484000000,87756984000000,500.0,4096,67,66,1841271,1841336,14730710043,14731230045,275,67733,2,1,3,9
87757015000000,87757515000000,500.0,4096,68,67,1841337,1841403,14731238045,14731766043,273,67801,2,1,3,9
87757546000000,87758046000000,500.0,4096,67,66,1841404,1841469,14731774043,14732294044,185,67868,2,1,3,9
87758078000000,87758578000000,500.0,4096,68,67,1841470,1841536,14732302043,14732830045,363,67936,2,1,3,9
87758625000000,87759125000000,500.0,4096,67,67,1841537,1841603,14732838043,14733366043,334,68003,2,1,3,9
87759156000000,87759640000000,484.0,4096,67,66,1841604,1841669,14733374043,14733894043,2018,68070,2,1,3,9
87759906000000,87760171000000,265.0,4096,67,66,1841670,1841735,14733902045,14734422043,248,68137,2,1,3,9
87760218000000,87760703000000,485.0,4096,68,67,1841736,1841802,14734430043,14734958043,229,68205,2,1,3,9
87760734000000,87761250000000,516.0,4096,67,67,1841803,1841869,14734966044,14735494043,234,68272,2,1,3,9
87761281000000,87761781000000,500.0,4096,67,66,1841870,1841935,14735502043,14736022043,332,68339,2,1,3,9
87761812000000,87762312000000,500.0,4096,68,67,1841936,1842002,14736030046,14736558043,180,68407,2,1,3,9
87762328000000,87762843000000,515.0,4096,68,66,1842003,1842068,14736566043,14737086043,243,68475,2,1,3,9
87762875000000,87763375000000,500.0,4096,67,67,1842069,1842135,14737094043,14737622043,214,68542,2,1,3,9
87763406000000,87763921000000,515.0,4096,68,67,1842136,1842202,14737630043,14738158045,296,68610,2,1,3,9
87763953000000,87764437000000,484.0,4096,67,66,1842203,1842268,14738166043,14738686047,261,68677,2,1,3,9
87764468000000,87764984000000,516.0,4096,68,68,1842269,1842336,14738694046,14739230047,301,68745,2,1,3,9
87765015000000,87765500000000,485.0,4096,66,65,1842337,1842401,14739238043,14739750043,185,68811,2,1,3,9
87765531000000,87766031000000,500.0,4096,66,65,1842402,1842466,14739758043,14740270043,256,68877,2,1,3,9
87766062000000,87766546000000,484.0,4096,67,66,1842467,1842532,14740278043,14740798043,238,68944,2,1,3,9
87766578000000,87767093000000,515.0,4096,67,67,1842533,1842599,14740806044,14741334043,328,69011,2,1,3,9
87767125000000,87767609000000,484.0,4096,66,64,1842600,1842663,14741342044,14741846047,254,69077,2,1,3,9
87767640000000,87768125000000,485.0,4096,67,66,1842664,1842729,14741854045,14742374047,241,69144,2,1,3,9
87768156000000,87768640000000,484.0,4096,66,64,1842730,1842793,14742382043,14742886043,204,69210,2,1,3,9
87768671000000,87769171000000,500.0,4096,66,66,1842794,1842859,14742894043,14743414043,326,69276,2,1,3,9
87769203000000,87769687000000,484.0,4096,67,66,1842860,1842925,14743422043,14743942043,226,69343,2,1,3,9
87769718000000,87770218000000,500.0,4096,66,65,1842926,1842990,14743950046,14744462047,191,69409,2,1,3,9
87770234000000,87770734000000,500.0,4096,66,65,1842991,1843055,14744470047,14744982043,364,69475,2,1,3,9
87770781000000,87771265000000,484.0,4096,66,65,1843056,1843120,14744990046,14745502043,174,69541,2,1,3,9
87771281000000,87771781000000,500.0,4096,66,66,1843121,1843186,14745510047,14746030043,444,69607,2,1,3,9
87771843000000,87772312000000,469.0,4096,67,66,1843187,1843252,14746038043,14746558045,336,69674,2,1,3,9
87772359000000,87772828000000,469.0,4096,66,64,1843253,1843316,14746566047,14747070043,231,69740,2,1,3,9
87772859000000,87773343000000,484.0,4096,67,66,1843317,1843382,14747078043,14747598044,331,69807,2,1,3,9
87773390000000,87773875000000,485.0,4096,66,66,1843383,1843448,14747606045,14748126043,174,69873,2,1,3,9
87773906000000,87774406000000,500.0,4096,67,66,1843449,1843514,14748134043,14748654043,359,69940,2,1,3,9
87774453000000,87774921000000,468.0,4096,66,65,1843515,1843579,14748662043,14749174046,165,70006,2,1,3,9
87774953000000,87775453000000,500.0,4096,66,65,1843580,1843644,14749182043,14749694043,467,70072,2,1,3,9
87775500000000,87775984000000,484.0,4096,66,66,1843645,1843710,14749702043,14750222043,440,70138,2,1,3,9
87776031000000,87776500000000,469.0,4096,67,66,1843711,1843776,14750230043,14750750044,266,70205,2,1,3,9
87776531000000,87777015000000,484.0,4096,66,65,1843777,1843841,14750758043,14751270047,321,70271,2,1,3,9
87777062000000,87777546000000,484.0,4096,67,65,1843842,1843906,14751278045,14751790046,198,70338,2,1,3,9
87777562000000,87778078000000,516.0,4096,66,66,1843907,1843972,14751798043,14752318043,277,70404,2,1,3,9
87778109000000,87778593000000,484.0,4096,67,66,1843973,1844038,14752326043,14752846043,178,70471,2,1,3,9
87778625000000,87779125000000,500.0,4096,66,65,1844039,1844103,14752854047,14753366043,351,70537,2,1,3,9
87779171000000,87779640000000,469.0,4096,67,66,1844104,1844169,14753374043,14753894043,210,70604,2,1,3,9
87779671000000,87780171000000,500.0,4096,66,65,1844170,1844234,14753902047,14754414043,2193,70670,2,1,3,9
87780453000000,87780703000000,250.0,4096,66,66,1844235,1844300,14754422043,14754942043,252,70736,2,1,3,9
87780734000000,87781234000000,500.0,4096,68,67,1844301,1844367,14754950043,14755478043,213,70804,2,1,3,9
87781250000000,87781750000000,500.0,4096,66,65,1844368,1844432,14755486043,14755998043,317,70870,2,1,3,9
87781796000000,87782281000000,485.0,4096,66,65,1844433,1844497,14756006043,14756518044,190,70936,2,1,3,9
87782296000000,87782812000000,516.0,4096,68,67,1844498,1844564,14756526046,14757054043,241,71004,2,1,3,9
87782843000000,87783328000000,485.0,4096,66,65,1844565,1844629,14757062046,14757574046,264,71070,2,1,3,9
87783359000000,87783843000000,484.0,4096,66,65,1844630,1844694,14757582043,14758094045,165,71136,2,1,3,9
87783875000000,87784375000000,500.0,4096,67,66,1844695,1844760,14758102046,14758622046,357,71203,2,1,3,9
87784421000000,87784906000000,485.0,4096,66,66,1844761,1844826,14758630046,14759150043,315,71269,2,1,3,9
87784937000000,87785421000000,484.0,4096,66,65,1844827,1844891,14759158043,14759670047,229,71335,2,1,3,9
87785453000000,87785953000000,500.0,4096,67,66,1844892,1844957,14759678043,14760198043,287,71402,2,1,3,9
87785984000000,87786468000000,484.0,4096,66,65,1844958,1845022,14760206043,14760718044,360,71468,2,1,3,9
87786515000000,87787000000000,485.0,4096,66,66,1845023,1845088,14760726047,14761246043,319,71534,2,1,3,9
87787031000000,87787515000000,484.0,4096,67,65,1845089,1845153,14761254043,14761766047,492,71601,2,1,3,9
87787578000000,87788046000000,468.0,4096,66,65,1845154,1845218,14761774045,14762286043,320,71667,2,1,3,9
87788078000000,87788562000000,484.0,4096,67,65,1845219,1845283,14762294046,14762806044,164,71734,2,1,3,9
87788578000000,87789093000000,515.0,4096,67,67,1845284,1845350,14762814045,14763342045,236,71801,2,1,3,9
87789125000000,87789609000000,484.0,4096,66,65,1845351,1845415,14763350043,14763862043,156,71867,2,1,3,9
87789640000000,87790140000000,500.0,4096,66,66,1845416,1845481,14763870047,14764390043,282,71933,2,1,3,9
87790171000000,87790671000000,500.0,4096,66,65,1845482,1845546,14764398044,14764910045,351,71999,2,1,3,9
87790718000000,87791187000000,469.0,4096,67,66,1845547,1845612,14764918049,14765438046,204,72066,2,1,3,9
87791218000000,87791718000000,500.0,4096,66,66,1845613,1845678,14765446043,14765966044,283,72132,2,1,3,9
87791750000000,87792250000000,500.0,4096,66,65,1845679,1845743,14765974043,14766486047,236,72198,2,1,3,9
87792265000000,87792765000000,500.0,4096,67,65,1845744,1845808,14766494044,14767006045,275,72265,2,1,3,9
87792796000000,87793281000000,485.0,4096,67,66,1845809,1845874,14767014044,14767534042,239,72332,2,1,3,9
87793312000000,87793812000000,500.0,4096,66,66,1845875,1845940,14767542043,14768062046,270,72398,2,1,3,9
87793843000000,87794343000000,500.0,4096,66,65,1845941,1846005,14768070044,14768582043,266,72464,2,1,3,9
87794375000000,87794859000000,484.0,4096,67,66,1846006,1846071,14768590045,14769110043,253,72531,2,1,3,9
87794890000000,87795390000000,500.0,4096,66,65,1846072,1846136,14769118046,14769630043,239,72597,2,1,3,9
87795421000000,87795906000000,485.0,4096,66,66,1846137,1846202,14769638046,14770158047,247,72663,2,1,3,9
87795937000000,87796437000000,500.0,4096,66,65,1846203,1846267,14770166047,14770678043,241,72729,2,1,3,9
87796468000000,87796968000000,500.0,4096,67,66,1846268,1846333,14770686045,14771206043,240,72796,2,1,3,9
87797000000000,87797484000000,484.0,4096,67,65,1846334,1846398,14771214047,14771726046,237,72863,2,1,3,9
87797515000000,87798015000000,500.0,4096,66,66,1846399,1846464,14771734043,14772254047,349,72929,2,1,3,9
87798046000000,87798531000000,485.0,4096,67,66,1846465,1846530,14772262047,14772782043,295,72996,2,1,3,9
87798578000000,87799062000000,484.0,4096,67,66,1846531,1846596,14772790043,14773310045,255,73063,2,1,3,9
87799093000000,87799593000000,500.0,4096,66,65,1846597,1846661,14773318043,14773830044,255,73129,2,1,3,9
87799625000000,87800109000000,484.0,4096,67,66,1846662,1846727,14773838043,14774358044,261,73196,2,1,3,9
87800140000000,87800640000000,500.0,4096,67,67,1846728,1846794,14774366047,14774894047,1998,73263,2,1,3,9
87800890000000,87801171000000,281.0,4096,66,65,1846795,1846859,14774902043,14775414044,209,73329,2,1,3,9
87801203000000,87801687000000,484.0,4096,67,66,1846860,1846925,14775422043,14775942044,305,73396,2,1,3,9
87801734000000,87802234000000,500.0,4096,66,66,1846926,1846991,14775950043,14776470047,212,73462,2,1,3,9
87802250000000,87802750000000,500.0,4096,67,65,1846992,1847056,14776478043,14776990047,235,73529,2,1,3,9
87802781000000,87803265000000,484.0,4096,66,65,1847057,1847121,14776998047,14777510043,230,73595,2,1,3,9
87803296000000,87803796000000,500.0,4096,67,66,1847122,1847187,14777518043,14778038043,247,73662,2,1,3,9
87803828000000,87804312000000,484.0,4096,66,65,1847188,1847252,14778046046,14778558047,272,73728,2,1,3,9
87804343000000,87804843000000,500.0,4096,66,66,1847253,1847318,14778566045,14779086046,267,73794,2,1,3,9
87804875000000,87805359000000,484.0,4096,67,66,1847319,1847384,14779094043,14779614045,280,73861,2,1,3,9
87805406000000,87805890000000,484.0,4096,66,65,1847385,1847449,14779622043,14780134043,187,73927,2,1,3,9
87805906000000,87806406000000,500.0,4096,66,65,1847450,1847514,14780142045,14780654043,290,73993,2,1,3,9
87806453000000,87806937000000,484.0,4096,66,66,1847515,1847580,14780662046,14781182046,226,74059,2,1,3,9
87806968000000,87807453000000,485.0,4096,67,65,1847581,1847645,14781190043,14781702043,311,74126,2,1,3,9
87807500000000,87807984000000,484.0,4096,67,66,1847646,1847711,14781710043,14782230047,303,74193,2,1,3,9
87808015000000,87808500000000,485.0,4096,66,64,1847712,1847775,14782238047,14782742043,245,74259,2,1,3,9
87808531000000,87809031000000,500.0,4096,66,66,1847776,1847841,14782750047,14783270044,470,74325,2,1,3,9
87809093000000,87809546000000,453.0,4096,67,66,1847842,1847907,14783278047,14783798046,260,74392,2,1,3,9
87809578000000,87810078000000,500.0,4096,66,65,1847908,1847972,14783806043,14784318044,463,74458,2,1,3,9
87810125000000,87810593000000,468.0,4096,66,65,1847973,1848037,14784326043,14784838043,240,74524,2,1,3,9
87810625000000,87811109000000,484.0,4096,66,65,1848038,1848102,14784846046,14785358047,294,74590,2,1,3,9
87811156000000,87811640000000,484.0,4096,66,66,1848103,1848168,14785366046,14785886046,272,74656,2,1,3,9
87811671000000,87812171000000,500.0,4096,68,67,1848169,1848235,14785894043,14786422047,305,74724,2,1,3,9
87812203000000,87812687000000,484.0,4096,67,65,1848236,1848300,14786430047,14786942043,218,74791,2,1,3,9
87812718000000,87813218000000,500.0,4096,66,65,1848301,1848365,14786950043,14787462043,210,74857,2,1,3,9
87813250000000,87813750000000,500.0,4096,67,67,1848366,1848432,14787470043,14787998045,297,74924,2,1,3,9
87813781000000,87814281000000,500.0,4096,67,66,1848433,1848498,14788006043,14788526047,319,74991,2,1,3,9
87814312000000,87814796000000,484.0,4096,66,65,1848499,1848563,14788534047,14789046047,215,75057,2,1,3,9
87814828000000,87815328000000,500.0,4096,66,65,1848564,1848628,14789054047,14789566043,251,75123,2,1,3,9
87815359000000,87815859000000,500.0,4096,67,67,1848629,1848695,14789574043,14790102043,203,75190,2,1,3,9
87815875000000,87816375000000,500.0,4096,67,66,1848696,1848761,14790110045,14790630045,282,75257,2,1,3,9
87816421000000,87816906000000,485.0,4096,66,65,1848762,1848826,14790638043,14791150047,278,75323,2,1,3,9
87816937000000,87817421000000,484.0,4096,67,65,1848827,1848891,14791158043,14791670043,273,75390,2,1,3,9
87817453000000,87817953000000,500.0,4096,66,66,1848892,1848957,14791678047,14792198043,365,75456,2,1,3,9
87818000000000,87818468000000,468.0,4096,66,65,1848958,1849022,14792206043,14792718049,211,75522,2,1,3,9
87818500000000,87819000000000,500.0,4096,66,66,1849023,1849088,14792726047,14793246047,336,75588,2,1,3,9
87819046000000,87819531000000,485.0,4096,67,66,1849089,1849154,14793254043,14793774045,214,75655,2,1,3,9
87819546000000,87820046000000,500.0,4096,66,66,1849155,1849220,14793782047,14794302046,292,75721,2,1,3,9
87820078000000,87820578000000,500.0,4096,66,65,1849221,1849285,14794310043,14794822044,2067,75787,2,1,3,9
87820843000000,87821109000000,266.0,4096,66,65,1849286,1849350,14794830047,14795342043,442,75853,2,1,3,9
