t_us,score_t_us,latest_data_t_us,baseline_version,uses_future_data
0,0,0,0,0
0,0,0,0,0
67552213920,67552213920,67552213920,0,0
67572885916,67572885916,67572885916,0,0
67572885916,67572885916,67572885916,0,0
67593325916,67593325916,67593325916,0,0
67572885916,67572885916,67572885916,0,0
67613837917,67613837917,67613837917,0,0
67572885916,67572885916,67572885916,0,0
67634341920,67634341920,67634341920,0,0
67572885916,67572885916,67572885916,0,0
67634341920,67634341920,67634341920,0,0
67655053920,67655053920,67655053920,0,0
67572885916,67572885916,67572885916,0,0
67634341920,67634341920,67634341920,0,0
67675453921,67675453921,67675453921,0,0
67572885916,67572885916,67572885916,0,0
67634341920,67634341920,67634341920,0,0
67695533920,67695533920,67695533920,0,0
67572885916,67572885916,67572885916,0,0
67634341920,67634341920,67634341920,0,0
67695533920,67695533920,67695533920,0,0
67715677920,67715677920,67715677920,0,0
67572885916,67572885916,67572885916,0,0
67634341920,67634341920,67634341920,0,0
67695533920,67695533920,67695533920,0,0
67735733920,67735733920,67735733920,0,0
67572885916,67572885916,67572885916,0,0
67634341920,67634341920,67634341920,0,0
67695533920,67695533920,67695533920,0,0
67755925918,67755925918,67755925918,0,0
67572885916,67572885916,67572885916,0,0
67634341920,67634341920,67634341920,0,0
67695533920,67695533920,67695533920,0,0
67755925918,67755925918,67755925918,0,0
67776373920,67776373920,67776373920,0,0
67572885916,67572885916,67572885916,0,0
67634341920,67634341920,67634341920,0,0
67695533920,67695533920,67695533920,0,0
67755925918,67755925918,67755925918,0,0
67796957921,67796957921,67796957921,0,0
67572885916,67572885916,67572885916,0,0
67634341920,67634341920,67634341920,0,0
67695533920,67695533920,67695533920,0,0
67755925918,67755925918,67755925918,0,0
67817037918,67817037918,67817037918,0,0
67572885916,67572885916,67572885916,0,0
67634341920,67634341920,67634341920,0,0
67695533920,67695533920,67695533920,0,0
67755925918,67755925918,67755925918,0,0
67817037918,67817037918,67817037918,0,0
67837373920,67837373920,67837373920,0,0
67572885916,67572885916,67572885916,0,0
67634341920,67634341920,67634341920,0,0
67695533920,67695533920,67695533920,0,0
67755925918,67755925918,67755925918,0,0
67817037918,67817037918,67817037918,0,0
67857493920,67857493920,67857493920,0,0
67572885916,67572885916,67572885916,0,0
67634341920,67634341920,67634341920,0,0
67695533920,67695533920,67695533920,0,0
67755925918,67755925918,67755925918,0,0
67817037918,67817037918,67817037918,0,0
67877589920,67877589920,67877589920,0,0
67572885916,67572885916,67572885916,0,0
67634341920,67634341920,67634341920,0,0
67695533920,67695533920,67695533920,0,0
67755925918,67755925918,67755925918,0,0
67817037918,67817037918,67817037918,0,0
67877589920,67877589920,67877589920,0,0
67897765920,67897765920,67897765920,0,0
67572885916,67572885916,67572885916,0,0
67634341920,67634341920,67634341920,0,0
67695533920,67695533920,67695533920,0,0
67755925918,67755925918,67755925918,0,0
67817037918,67817037918,67817037918,0,0
67877589920,67877589920,67877589920,0,0
67918109917,67918109917,67918109917,0,0
67572885916,67572885916,67572885916,0,0
67634341920,67634341920,67634341920,0,0
67695533920,67695533920,67695533920,0,0
67755925918,67755925918,67755925918,0,0
67817037918,67817037918,67817037918,0,0
67877589920,67877589920,67877589920,0,0
67938645920,67938645920,67938645920,0,0
67572885916,67572885916,67572885916,0,0
67634341920,67634341920,67634341920,0,0
67695533920,67695533920,67695533920,0,0
67755925918,67755925918,67755925918,0,0
67817037918,67817037918,67817037918,0,0
67877589920,67877589920,67877589920,0,0
67938645920,67938645920,67938645920,0,0
67958869916,67958869916,67958869916,0,0
67572885916,67572885916,67572885916,0,0
67634341920,67634341920,67634341920,0,0
67695533920,67695533920,67695533920,0,0
67755925918,67755925918,67755925918,0,0
67817037918,67817037918,67817037918,0,0
67877589920,67877589920,67877589920,0,0
67938645920,67938645920,67938645920,0,0
67979597917,67979597917,67979597917,0,0
67572885916,67572885916,67572885916,0,0
67634341920,67634341920,67634341920,0,0
67695533920,67695533920,67695533920,0,0
67755925918,67755925918,67755925918,0,0
67817037918,67817037918,67817037918,0,0
67877589920,67877589920,67877589920,0,0
67938645920,67938645920,67938645920,0,0
67999725920,67999725920,67999725920,0,0
67572885916,67572885916,67572885916,0,0
67634341920,67634341920,67634341920,0,0
67695533920,67695533920,67695533920,0,0
67755925918,67755925918,67755925918,0,0
67817037918,67817037918,67817037918,0,0
67877589920,67877589920,67877589920,0,0
67938645920,67938645920,67938645920,0,0
67999725920,67999725920,67999725920,0,0
68019797920,68019797920,68019797920,0,0
67572885916,67572885916,67572885916,0,0
67634341920,67634341920,67634341920,0,0
67695533920,67695533920,67695533920,0,0
67755925918,67755925918,67755925918,0,0
67817037918,67817037918,67817037918,0,0
67877589920,67877589920,67877589920,0,0
67938645920,67938645920,67938645920,0,0
67999725920,67999725920,67999725920,0,0
68040093920,68040093920,68040093920,67857493920,0
67572885916,67572885916,67572885916,0,0
67634341920,67634341920,67634341920,0,0
67695533920,67695533920,67695533920,0,0
67755925918,67755925918,67755925918,0,0
67817037918,67817037918,67817037918,0,0
67877589920,67877589920,67877589920,0,0
67938645920,67938645920,67938645920,0,0
67999725920,67999725920,67999725920,0,0
68060517920,68060517920,68060517920,67857493920,0
67572885916,67572885916,67572885916,0,0
67634341920,67634341920,67634341920,0,0
67695533920,67695533920,67695533920,0,0
67755925918,67755925918,67755925918,0,0
67817037918,67817037918,67817037918,0,0
67877589920,67877589920,67877589920,0,0
67938645920,67938645920,67938645920,0,0
67999725920,67999725920,67999725920,0,0
68060517920,68060517920,68060517920,67857493920,0
68080565920,68080565920,68080565920,67857493920,0
67572885916,67572885916,67572885916,0,0
67634341920,67634341920,67634341920,0,0
67695533920,67695533920,67695533920,0,0
67755925918,67755925918,67755925918,0,0
67817037918,67817037918,67817037918,0,0
67877589920,67877589920,67877589920,0,0
67938645920,67938645920,67938645920,0,0
67999725920,67999725920,67999725920,0,0
68060517920,68060517920,68060517920,67857493920,0
68100765920,68100765920,68100765920,67857493920,0
67572885916,67572885916,67572885916,0,0
67634341920,67634341920,67634341920,0,0
67695533920,67695533920,67695533920,0,0
67755925918,67755925918,67755925918,0,0
67817037918,67817037918,67817037918,0,0
67877589920,67877589920,67877589920,0,0
67938645920,67938645920,67938645920,0,0
67999725920,67999725920,67999725920,0,0
68060517920,68060517920,68060517920,67857493920,0
68121229921,68121229921,68121229921,67857493920,0
67572885916,67572885916,67572885916,0,0
67634341920,67634341920,67634341920,0,0
67695533920,67695533920,67695533920,0,0
67755925918,67755925918,67755925918,0,0
67817037918,67817037918,67817037918,0,0
67877589920,67877589920,67877589920,0,0
67938645920,67938645920,67938645920,0,0
67999725920,67999725920,67999725920,0,0
68060517920,68060517920,68060517920,67857493920,0
68121229921,68121229921,68121229921,67857493920,0
68141829918,68141829918,68141829918,67857493920,0
67572885916,67572885916,67572885916,0,0
67634341920,67634341920,67634341920,0,0
67695533920,67695533920,67695533920,0,0
67755925918,67755925918,67755925918,0,0
67817037918,67817037918,67817037918,0,0
67877589920,67877589920,67877589920,0,0
67938645920,67938645920,67938645920,0,0
67999725920,67999725920,67999725920,0,0
68060517920,68060517920,68060517920,67857493920,0
68121229921,68121229921,68121229921,67857493920,0
68161861918,68161861918,68161861918,67857493920,0
67572885916,67572885916,67572885916,0,0
67634341920,67634341920,67634341920,0,0
67695533920,67695533920,67695533920,0,0
67755925918,67755925918,67755925918,0,0
67817037918,67817037918,67817037918,0,0
67877589920,67877589920,67877589920,0,0
67938645920,67938645920,67938645920,0,0
67999725920,67999725920,67999725920,0,0
68060517920,68060517920,68060517920,67857493920,0
68121229921,68121229921,68121229921,67857493920,0
68182485920,68182485920,68182485920,67857493920,0
67572885916,67572885916,67572885916,0,0
67634341920,67634341920,67634341920,0,0
67695533920,67695533920,67695533920,0,0
67755925918,67755925918,67755925918,0,0
67817037918,67817037918,67817037918,0,0
67877589920,67877589920,67877589920,0,0
67938645920,67938645920,67938645920,0,0
67999725920,67999725920,67999725920,0,0
68060517920,68060517920,68060517920,67857493920,0
68121229921,68121229921,68121229921,67857493920,0
68182485920,68182485920,68182485920,67857493920,0
68203189917,68203189917,68203189917,67857493920,0
67572885916,67572885916,67572885916,0,0
67634341920,67634341920,67634341920,0,0
67695533920,67695533920,67695533920,0,0
67755925918,67755925918,67755925918,0,0
67817037918,67817037918,67817037918,0,0
67877589920,67877589920,67877589920,0,0
67938645920,67938645920,67938645920,0,0
67999725920,67999725920,67999725920,0,0
68060517920,68060517920,68060517920,67857493920,0
68121229921,68121229921,68121229921,67857493920,0
68182485920,68182485920,68182485920,67857493920,0
68223325919,68223325919,68223325919,67857493920,0
67572885916,67572885916,67572885916,0,0
67634341920,67634341920,67634341920,0,0
67695533920,67695533920,67695533920,0,0
67755925918,67755925918,67755925918,0,0
67817037918,67817037918,67817037918,0,0
67877589920,67877589920,67877589920,0,0
67938645920,67938645920,67938645920,0,0
67999725920,67999725920,67999725920,0,0
68060517920,68060517920,68060517920,67857493920,0
68121229921,68121229921,68121229921,67857493920,0
68182485920,68182485920,68182485920,67857493920,0
68243349920,68243349920,68243349920,67857493920,0
67572885916,67572885916,67572885916,0,0
67634341920,67634341920,67634341920,0,0
67695533920,67695533920,67695533920,0,0
67755925918,67755925918,67755925918,0,0
67817037918,67817037918,67817037918,0,0
67877589920,67877589920,67877589920,0,0
67938645920,67938645920,67938645920,0,0
67999725920,67999725920,67999725920,0,0
68060517920,68060517920,68060517920,67857493920,0
68121229921,68121229921,68121229921,67857493920,0
68182485920,68182485920,68182485920,67857493920,0
68243349920,68243349920,68243349920,67857493920,0
68263485920,68263485920,68263485920,67857493920,0
67572885916,67572885916,67572885916,0,0
67634341920,67634341920,67634341920,0,0
67695533920,67695533920,67695533920,0,0
67755925918,67755925918,67755925918,0,0
67817037918,67817037918,67817037918,0,0
67877589920,67877589920,67877589920,0,0
67938645920,67938645920,67938645920,0,0
67999725920,67999725920,67999725920,0,0
68060517920,68060517920,68060517920,67857493920,0
68121229921,68121229921,68121229921,67857493920,0
68182485920,68182485920,68182485920,67857493920,0
68243349920,68243349920,68243349920,67857493920,0
68284077917,68284077917,68284077917,67857493920,0
67572885916,67572885916,67572885916,0,0
67634341920,67634341920,67634341920,0,0
67695533920,67695533920,67695533920,0,0
67755925918,67755925918,67755925918,0,0
67817037918,67817037918,67817037918,0,0
67877589920,67877589920,67877589920,0,0
67938645920,67938645920,67938645920,0,0
67999725920,67999725920,67999725920,0,0
68060517920,68060517920,68060517920,67857493920,0
68121229921,68121229921,68121229921,67857493920,0
68182485920,68182485920,68182485920,67857493920,0
68243349920,68243349920,68243349920,67857493920,0
68304717916,68304717916,68304717916,67857493920,0
67572885916,67572885916,67572885916,0,0
67634341920,67634341920,67634341920,0,0
67695533920,67695533920,67695533920,0,0
67755925918,67755925918,67755925918,0,0
67817037918,67817037918,67817037918,0,0
67877589920,67877589920,67877589920,0,0
67938645920,67938645920,67938645920,0,0
67999725920,67999725920,67999725920,0,0
68060517920,68060517920,68060517920,67857493920,0
68121229921,68121229921,68121229921,67857493920,0
68182485920,68182485920,68182485920,67857493920,0
68243349920,68243349920,68243349920,67857493920,0
68304717916,68304717916,68304717916,67857493920,0
68325133920,68325133920,68325133920,67857493920,0
67572885916,67572885916,67572885916,0,0
67634341920,67634341920,67634341920,0,0
67695533920,67695533920,67695533920,0,0
67755925918,67755925918,67755925918,0,0
67817037918,67817037918,67817037918,0,0
67877589920,67877589920,67877589920,0,0
67938645920,67938645920,67938645920,0,0
67999725920,67999725920,67999725920,0,0
68060517920,68060517920,68060517920,67857493920,0
68121229921,68121229921,68121229921,67857493920,0
68182485920,68182485920,68182485920,67857493920,0
68243349920,68243349920,68243349920,67857493920,0
68304717916,68304717916,68304717916,67857493920,0
68345661920,68345661920,68345661920,68161861918,0
67572885916,67572885916,67572885916,0,0
67634341920,67634341920,67634341920,0,0
67695533920,67695533920,67695533920,0,0
67755925918,67755925918,67755925918,0,0
67817037918,67817037918,67817037918,0,0
67877589920,67877589920,67877589920,0,0
67938645920,67938645920,67938645920,0,0
67999725920,67999725920,67999725920,0,0
68060517920,68060517920,68060517920,67857493920,0
68121229921,68121229921,68121229921,67857493920,0
68182485920,68182485920,68182485920,67857493920,0
68243349920,68243349920,68243349920,67857493920,0
68304717916,68304717916,68304717916,67857493920,0
68366381917,68366381917,68366381917,68161861918,0
67572885916,67572885916,67572885916,0,0
67634341920,67634341920,67634341920,0,0
67695533920,67695533920,67695533920,0,0
67755925918,67755925918,67755925918,0,0
67817037918,67817037918,67817037918,0,0
67877589920,67877589920,67877589920,0,0
67938645920,67938645920,67938645920,0,0
67999725920,67999725920,67999725920,0,0
68060517920,68060517920,68060517920,67857493920,0
68121229921,68121229921,68121229921,67857493920,0
68182485920,68182485920,68182485920,67857493920,0
68243349920,68243349920,68243349920,67857493920,0
68304717916,68304717916,68304717916,67857493920,0
68366381917,68366381917,68366381917,68161861918,0
68386773920,68386773920,68386773920,68161861918,0
67572885916,67572885916,67572885916,0,0
67634341920,67634341920,67634341920,0,0
67695533920,67695533920,67695533920,0,0
67755925918,67755925918,67755925918,0,0
67817037918,67817037918,67817037918,0,0
67877589920,67877589920,67877589920,0,0
67938645920,67938645920,67938645920,0,0
67999725920,67999725920,67999725920,0,0
68060517920,68060517920,68060517920,67857493920,0
68121229921,68121229921,68121229921,67857493920,0
68182485920,68182485920,68182485920,67857493920,0
68243349920,68243349920,68243349920,67857493920,0
68304717916,68304717916,68304717916,67857493920,0
68366381917,68366381917,68366381917,68161861918,0
68407205917,68407205917,68407205917,68161861918,0
67572885916,67572885916,67572885916,0,0
67634341920,67634341920,67634341920,0,0
67695533920,67695533920,67695533920,0,0
67755925918,67755925918,67755925918,0,0
67817037918,67817037918,67817037918,0,0
67877589920,67877589920,67877589920,0,0
67938645920,67938645920,67938645920,0,0
67999725920,67999725920,67999725920,0,0
68060517920,68060517920,68060517920,67857493920,0
68121229921,68121229921,68121229921,67857493920,0
68182485920,68182485920,68182485920,67857493920,0
68243349920,68243349920,68243349920,67857493920,0
68304717916,68304717916,68304717916,67857493920,0
68366381917,68366381917,68366381917,68161861918,0
68427253920,68427253920,68427253920,68161861918,0
67572885916,67572885916,67572885916,0,0
67634341920,67634341920,67634341920,0,0
67695533920,67695533920,67695533920,0,0
67755925918,67755925918,67755925918,0,0
67817037918,67817037918,67817037918,0,0
67877589920,67877589920,67877589920,0,0
67938645920,67938645920,67938645920,0,0
67999725920,67999725920,67999725920,0,0
68060517920,68060517920,68060517920,67857493920,0
68121229921,68121229921,68121229921,67857493920,0
68182485920,68182485920,68182485920,67857493920,0
68243349920,68243349920,68243349920,67857493920,0
68304717916,68304717916,68304717916,67857493920,0
68366381917,68366381917,68366381917,68161861918,0
68427253920,68427253920,68427253920,68161861918,0
68447261917,68447261917,68447261917,68161861918,0
67572885916,67572885916,67572885916,0,0
67634341920,67634341920,67634341920,0,0
67695533920,67695533920,67695533920,0,0
67755925918,67755925918,67755925918,0,0
67817037918,67817037918,67817037918,0,0
67877589920,67877589920,67877589920,0,0
67938645920,67938645920,67938645920,0,0
67999725920,67999725920,67999725920,0,0
68060517920,68060517920,68060517920,67857493920,0
68121229921,68121229921,68121229921,67857493920,0
68182485920,68182485920,68182485920,67857493920,0
68243349920,68243349920,68243349920,67857493920,0
68304717916,68304717916,68304717916,67857493920,0
68366381917,68366381917,68366381917,68161861918,0
68427253920,68427253920,68427253920,68161861918,0
68467413917,68467413917,68467413917,68161861918,0
67572885916,67572885916,67572885916,0,0
67634341920,67634341920,67634341920,0,0
67695533920,67695533920,67695533920,0,0
67755925918,67755925918,67755925918,0,0
67817037918,67817037918,67817037918,0,0
67877589920,67877589920,67877589920,0,0
67938645920,67938645920,67938645920,0,0
67999725920,67999725920,67999725920,0,0
68060517920,68060517920,68060517920,67857493920,0
68121229921,68121229921,68121229921,67857493920,0
68182485920,68182485920,68182485920,67857493920,0
68243349920,68243349920,68243349920,67857493920,0
68304717916,68304717916,68304717916,67857493920,0
68366381917,68366381917,68366381917,68161861918,0
68427253920,68427253920,68427253920,68161861918,0
68487525920,68487525920,68487525920,68161861918,0
67572885916,67572885916,67572885916,0,0
67634341920,67634341920,67634341920,0,0
67695533920,67695533920,67695533920,0,0
67755925918,67755925918,67755925918,0,0
67817037918,67817037918,67817037918,0,0
67877589920,67877589920,67877589920,0,0
67938645920,67938645920,67938645920,0,0
67999725920,67999725920,67999725920,0,0
68060517920,68060517920,68060517920,67857493920,0
68121229921,68121229921,68121229921,67857493920,0
68182485920,68182485920,68182485920,67857493920,0
68243349920,68243349920,68243349920,67857493920,0
68304717916,68304717916,68304717916,67857493920,0
68366381917,68366381917,68366381917,68161861918,0
68427253920,68427253920,68427253920,68161861918,0
68487525920,68487525920,68487525920,68161861918,0
68507725920,68507725920,68507725920,68161861918,0
67572885916,67572885916,67572885916,0,0
67634341920,67634341920,67634341920,0,0
67695533920,67695533920,67695533920,0,0
67755925918,67755925918,67755925918,0,0
67817037918,67817037918,67817037918,0,0
67877589920,67877589920,67877589920,0,0
67938645920,67938645920,67938645920,0,0
67999725920,67999725920,67999725920,0,0
68060517920,68060517920,68060517920,67857493920,0
68121229921,68121229921,68121229921,67857493920,0
68182485920,68182485920,68182485920,67857493920,0
68243349920,68243349920,68243349920,67857493920,0
68304717916,68304717916,68304717916,67857493920,0
68366381917,68366381917,68366381917,68161861918,0
68427253920,68427253920,68427253920,68161861918,0
68487525920,68487525920,68487525920,68161861918,0
68528237920,68528237920,68528237920,68161861918,0
67572885916,67572885916,67572885916,0,0
67634341920,67634341920,67634341920,0,0
67695533920,67695533920,67695533920,0,0
67755925918,67755925918,67755925918,0,0
67817037918,67817037918,67817037918,0,0
67877589920,67877589920,67877589920,0,0
67938645920,67938645920,67938645920,0,0
67999725920,67999725920,67999725920,0,0
68060517920,68060517920,68060517920,67857493920,0
68121229921,68121229921,68121229921,67857493920,0
68182485920,68182485920,68182485920,67857493920,0
68243349920,68243349920,68243349920,67857493920,0
68304717916,68304717916,68304717916,67857493920,0
68366381917,68366381917,68366381917,68161861918,0
68427253920,68427253920,68427253920,68161861918,0
68487525920,68487525920,68487525920,68161861918,0
68548805920,68548805920,68548805920,68161861918,0
67572885916,67572885916,67572885916,0,0
67634341920,67634341920,67634341920,0,0
67695533920,67695533920,67695533920,0,0
67755925918,67755925918,67755925918,0,0
67817037918,67817037918,67817037918,0,0
67877589920,67877589920,67877589920,0,0
67938645920,67938645920,67938645920,0,0
67999725920,67999725920,67999725920,0,0
68060517920,68060517920,68060517920,67857493920,0
68121229921,68121229921,68121229921,67857493920,0
68182485920,68182485920,68182485920,67857493920,0
68243349920,68243349920,68243349920,67857493920,0
68304717916,68304717916,68304717916,67857493920,0
68366381917,68366381917,68366381917,68161861918,0
68427253920,68427253920,68427253920,68161861918,0
68487525920,68487525920,68487525920,68161861918,0
68548805920,68548805920,68548805920,68161861918,0
68569117920,68569117920,68569117920,68161861918,0
67572885916,67572885916,67572885916,0,0
67634341920,67634341920,67634341920,0,0
67695533920,67695533920,67695533920,0,0
67755925918,67755925918,67755925918,0,0
67817037918,67817037918,67817037918,0,0
67877589920,67877589920,67877589920,0,0
67938645920,67938645920,67938645920,0,0
67999725920,67999725920,67999725920,0,0
68060517920,68060517920,68060517920,67857493920,0
68121229921,68121229921,68121229921,67857493920,0
68182485920,68182485920,68182485920,67857493920,0
68243349920,68243349920,68243349920,67857493920,0
68304717916,68304717916,68304717916,67857493920,0
68366381917,68366381917,68366381917,68161861918,0
68427253920,68427253920,68427253920,68161861918,0
68487525920,68487525920,68487525920,68161861918,0
68548805920,68548805920,68548805920,68161861918,0
68589549917,68589549917,68589549917,68161861918,0
67572885916,67572885916,67572885916,0,0
67634341920,67634341920,67634341920,0,0
67695533920,67695533920,67695533920,0,0
67755925918,67755925918,67755925918,0,0
67817037918,67817037918,67817037918,0,0
67877589920,67877589920,67877589920,0,0
67938645920,67938645920,67938645920,0,0
67999725920,67999725920,67999725920,0,0
68060517920,68060517920,68060517920,67857493920,0
68121229921,68121229921,68121229921,67857493920,0
68182485920,68182485920,68182485920,67857493920,0
68243349920,68243349920,68243349920,67857493920,0
68304717916,68304717916,68304717916,67857493920,0
68366381917,68366381917,68366381917,68161861918,0
68427253920,68427253920,68427253920,68161861918,0
68487525920,68487525920,68487525920,68161861918,0
68548805920,68548805920,68548805920,68161861918,0
68609669920,68609669920,68609669920,68161861918,0
67572885916,67572885916,67572885916,0,0
67634341920,67634341920,67634341920,0,0
67695533920,67695533920,67695533920,0,0
67755925918,67755925918,67755925918,0,0
67817037918,67817037918,67817037918,0,0
67877589920,67877589920,67877589920,0,0
67938645920,67938645920,67938645920,0,0
67999725920,67999725920,67999725920,0,0
68060517920,68060517920,68060517920,67857493920,0
68121229921,68121229921,68121229921,67857493920,0
68182485920,68182485920,68182485920,67857493920,0
68243349920,68243349920,68243349920,67857493920,0
68304717916,68304717916,68304717916,67857493920,0
68366381917,68366381917,68366381917,68161861918,0
68427253920,68427253920,68427253920,68161861918,0
68487525920,68487525920,68487525920,68161861918,0
68548805920,68548805920,68548805920,68161861918,0
68609669920,68609669920,68609669920,68161861918,0
68629717920,68629717920,68629717920,68161861918,0
67572885916,67572885916,67572885916,0,0
67634341920,67634341920,67634341920,0,0
67695533920,67695533920,67695533920,0,0
67755925918,67755925918,67755925918,0,0
67817037918,67817037918,67817037918,0,0
67877589920,67877589920,67877589920,0,0
67938645920,67938645920,67938645920,0,0
67999725920,67999725920,67999725920,0,0
68060517920,68060517920,68060517920,67857493920,0
68121229921,68121229921,68121229921,67857493920,0
68182485920,68182485920,68182485920,67857493920,0
68243349920,68243349920,68243349920,67857493920,0
68304717916,68304717916,68304717916,67857493920,0
68366381917,68366381917,68366381917,68161861918,0
68427253920,68427253920,68427253920,68161861918,0
68487525920,68487525920,68487525920,68161861918,0
68548805920,68548805920,68548805920,68161861918,0
68609669920,68609669920,68609669920,68161861918,0
68649901920,68649901920,68649901920,68467413917,0
67572885916,67572885916,67572885916,0,0
67634341920,67634341920,67634341920,0,0
67695533920,67695533920,67695533920,0,0
67755925918,67755925918,67755925918,0,0
67817037918,67817037918,67817037918,0,0
67877589920,67877589920,67877589920,0,0
67938645920,67938645920,67938645920,0,0
67999725920,67999725920,67999725920,0,0
68060517920,68060517920,68060517920,67857493920,0
68121229921,68121229921,68121229921,67857493920,0
68182485920,68182485920,68182485920,67857493920,0
68243349920,68243349920,68243349920,67857493920,0
68304717916,68304717916,68304717916,67857493920,0
68366381917,68366381917,68366381917,68161861918,0
68427253920,68427253920,68427253920,68161861918,0
68487525920,68487525920,68487525920,68161861918,0
68548805920,68548805920,68548805920,68161861918,0
68609669920,68609669920,68609669920,68161861918,0
68670709920,68670709920,68670709920,68467413917,0
67572885916,67572885916,67572885916,0,0
67634341920,67634341920,67634341920,0,0
67695533920,67695533920,67695533920,0,0
67755925918,67755925918,67755925918,0,0
67817037918,67817037918,67817037918,0,0
67877589920,67877589920,67877589920,0,0
67938645920,67938645920,67938645920,0,0
67999725920,67999725920,67999725920,0,0
68060517920,68060517920,68060517920,67857493920,0
68121229921,68121229921,68121229921,67857493920,0
68182485920,68182485920,68182485920,67857493920,0
68243349920,68243349920,68243349920,67857493920,0
68304717916,68304717916,68304717916,67857493920,0
68366381917,68366381917,68366381917,68161861918,0
68427253920,68427253920,68427253920,68161861918,0
68487525920,68487525920,68487525920,68161861918,0
68548805920,68548805920,68548805920,68161861918,0
68609669920,68609669920,68609669920,68161861918,0
68670709920,68670709920,68670709920,68467413917,0
68690789920,68690789920,68690789920,68467413917,0
67572885916,67572885916,67572885916,0,0
67634341920,67634341920,67634341920,0,0
67695533920,67695533920,67695533920,0,0
67755925918,67755925918,67755925918,0,0
67817037918,67817037918,67817037918,0,0
67877589920,67877589920,67877589920,0,0
67938645920,67938645920,67938645920,0,0
67999725920,67999725920,67999725920,0,0
68060517920,68060517920,68060517920,67857493920,0
68121229921,68121229921,68121229921,67857493920,0
68182485920,68182485920,68182485920,67857493920,0
68243349920,68243349920,68243349920,67857493920,0
68304717916,68304717916,68304717916,67857493920,0
68366381917,68366381917,68366381917,68161861918,0
68427253920,68427253920,68427253920,68161861918,0
68487525920,68487525920,68487525920,68161861918,0
68548805920,68548805920,68548805920,68161861918,0
68609669920,68609669920,68609669920,68161861918,0
68670709920,68670709920,68670709920,68467413917,0
68711357918,68711357918,68711357918,68467413917,0
67572885916,67572885916,67572885916,0,0
67634341920,67634341920,67634341920,0,0
67695533920,67695533920,67695533920,0,0
67755925918,67755925918,67755925918,0,0
67817037918,67817037918,67817037918,0,0
67877589920,67877589920,67877589920,0,0
67938645920,67938645920,67938645920,0,0
67999725920,67999725920,67999725920,0,0
68060517920,68060517920,68060517920,67857493920,0
68121229921,68121229921,68121229921,67857493920,0
68182485920,68182485920,68182485920,67857493920,0
68243349920,68243349920,68243349920,67857493920,0
68304717916,68304717916,68304717916,67857493920,0
68366381917,68366381917,68366381917,68161861918,0
68427253920,68427253920,68427253920,68161861918,0
68487525920,68487525920,68487525920,68161861918,0
68548805920,68548805920,68548805920,68161861918,0
68609669920,68609669920,68609669920,68161861918,0
68670709920,68670709920,68670709920,68467413917,0
68731709920,68731709920,68731709920,68467413917,0
67572885916,67572885916,67572885916,0,0
67634341920,67634341920,67634341920,0,0
67695533920,67695533920,67695533920,0,0
67755925918,67755925918,67755925918,0,0
67817037918,67817037918,67817037918,0,0
67877589920,67877589920,67877589920,0,0
67938645920,67938645920,67938645920,0,0
67999725920,67999725920,67999725920,0,0
68060517920,68060517920,68060517920,67857493920,0
68121229921,68121229921,68121229921,67857493920,0
68182485920,68182485920,68182485920,67857493920,0
68243349920,68243349920,68243349920,67857493920,0
68304717916,68304717916,68304717916,67857493920,0
68366381917,68366381917,68366381917,68161861918,0
68427253920,68427253920,68427253920,68161861918,0
68487525920,68487525920,68487525920,68161861918,0
68548805920,68548805920,68548805920,68161861918,0
68609669920,68609669920,68609669920,68161861918,0
68670709920,68670709920,68670709920,68467413917,0
68731709920,68731709920,68731709920,68467413917,0
68751773917,68751773917,68751773917,68467413917,0
67572885916,67572885916,67572885916,0,0
67634341920,67634341920,67634341920,0,0
67695533920,67695533920,67695533920,0,0
67755925918,67755925918,67755925918,0,0
67817037918,67817037918,67817037918,0,0
67877589920,67877589920,67877589920,0,0
67938645920,67938645920,67938645920,0,0
67999725920,67999725920,67999725920,0,0
68060517920,68060517920,68060517920,67857493920,0
68121229921,68121229921,68121229921,67857493920,0
68182485920,68182485920,68182485920,67857493920,0
68243349920,68243349920,68243349920,67857493920,0
68304717916,68304717916,68304717916,67857493920,0
68366381917,68366381917,68366381917,68161861918,0
68427253920,68427253920,68427253920,68161861918,0
68487525920,68487525920,68487525920,68161861918,0
68548805920,68548805920,68548805920,68161861918,0
68609669920,68609669920,68609669920,68161861918,0
68670709920,68670709920,68670709920,68467413917,0
68731709920,68731709920,68731709920,68467413917,0
68772349920,68772349920,68772349920,68467413917,0
67572885916,67572885916,67572885916,0,0
67634341920,67634341920,67634341920,0,0
67695533920,67695533920,67695533920,0,0
67755925918,67755925918,67755925918,0,0
67817037918,67817037918,67817037918,0,0
67877589920,67877589920,67877589920,0,0
67938645920,67938645920,67938645920,0,0
67999725920,67999725920,67999725920,0,0
68060517920,68060517920,68060517920,67857493920,0
68121229921,68121229921,68121229921,67857493920,0
68182485920,68182485920,68182485920,67857493920,0
68243349920,68243349920,68243349920,67857493920,0
68304717916,68304717916,68304717916,67857493920,0
68366381917,68366381917,68366381917,68161861918,0
68427253920,68427253920,68427253920,68161861918,0
68487525920,68487525920,68487525920,68161861918,0
68548805920,68548805920,68548805920,68161861918,0
68609669920,68609669920,68609669920,68161861918,0
68670709920,68670709920,68670709920,68467413917,0
68731709920,68731709920,68731709920,68467413917,0
68792829920,68792829920,68792829920,68467413917,0
67572885916,67572885916,67572885916,0,0
67634341920,67634341920,67634341920,0,0
67695533920,67695533920,67695533920,0,0
67755925918,67755925918,67755925918,0,0
67817037918,67817037918,67817037918,0,0
67877589920,67877589920,67877589920,0,0
67938645920,67938645920,67938645920,0,0
67999725920,67999725920,67999725920,0,0
68060517920,68060517920,68060517920,67857493920,0
68121229921,68121229921,68121229921,67857493920,0
68182485920,68182485920,68182485920,67857493920,0
68243349920,68243349920,68243349920,67857493920,0
68304717916,68304717916,68304717916,67857493920,0
68366381917,68366381917,68366381917,68161861918,0
68427253920,68427253920,68427253920,68161861918,0
68487525920,68487525920,68487525920,68161861918,0
68548805920,68548805920,68548805920,68161861918,0
68609669920,68609669920,68609669920,68161861918,0
68670709920,68670709920,68670709920,68467413917,0
68731709920,68731709920,68731709920,68467413917,0
68792829920,68792829920,68792829920,68467413917,0
68813253920,68813253920,68813253920,68467413917,0
67572885916,67572885916,67572885916,0,0
67634341920,67634341920,67634341920,0,0
67695533920,67695533920,67695533920,0,0
67755925918,67755925918,67755925918,0,0
67817037918,67817037918,67817037918,0,0
67877589920,67877589920,67877589920,0,0
67938645920,67938645920,67938645920,0,0
67999725920,67999725920,67999725920,0,0
68060517920,68060517920,68060517920,67857493920,0
68121229921,68121229921,68121229921,67857493920,0
68182485920,68182485920,68182485920,67857493920,0
68243349920,68243349920,68243349920,67857493920,0
68304717916,68304717916,68304717916,67857493920,0
68366381917,68366381917,68366381917,68161861918,0
68427253920,68427253920,68427253920,68161861918,0
68487525920,68487525920,68487525920,68161861918,0
68548805920,68548805920,68548805920,68161861918,0
68609669920,68609669920,68609669920,68161861918,0
68670709920,68670709920,68670709920,68467413917,0
68731709920,68731709920,68731709920,68467413917,0
68792829920,68792829920,68792829920,68467413917,0
68833509920,68833509920,68833509920,68467413917,0
67572885916,67572885916,67572885916,0,0
67634341920,67634341920,67634341920,0,0
67695533920,67695533920,67695533920,0,0
67755925918,67755925918,67755925918,0,0
67817037918,67817037918,67817037918,0,0
67877589920,67877589920,67877589920,0,0
67938645920,67938645920,67938645920,0,0
67999725920,67999725920,67999725920,0,0
68060517920,68060517920,68060517920,67857493920,0
68121229921,68121229921,68121229921,67857493920,0
68182485920,68182485920,68182485920,67857493920,0
68243349920,68243349920,68243349920,67857493920,0
68304717916,68304717916,68304717916,67857493920,0
68366381917,68366381917,68366381917,68161861918,0
68427253920,68427253920,68427253920,68161861918,0
68487525920,68487525920,68487525920,68161861918,0
68548805920,68548805920,68548805920,68161861918,0
68609669920,68609669920,68609669920,68161861918,0
68670709920,68670709920,68670709920,68467413917,0
68731709920,68731709920,68731709920,68467413917,0
68792829920,68792829920,68792829920,68467413917,0
68854189918,68854189918,68854189918,68467413917,0
67572885916,67572885916,67572885916,0,0
67634341920,67634341920,67634341920,0,0
67695533920,67695533920,67695533920,0,0
67755925918,67755925918,67755925918,0,0
67817037918,67817037918,67817037918,0,0
67877589920,67877589920,67877589920,0,0
67938645920,67938645920,67938645920,0,0
67999725920,67999725920,67999725920,0,0
68060517920,68060517920,68060517920,67857493920,0
68121229921,68121229921,68121229921,67857493920,0
68182485920,68182485920,68182485920,67857493920,0
68243349920,68243349920,68243349920,67857493920,0
68304717916,68304717916,68304717916,67857493920,0
68366381917,68366381917,68366381917,68161861918,0
68427253920,68427253920,68427253920,68161861918,0
68487525920,68487525920,68487525920,68161861918,0
68548805920,68548805920,68548805920,68161861918,0
68609669920,68609669920,68609669920,68161861918,0
68670709920,68670709920,68670709920,68467413917,0
68731709920,68731709920,68731709920,68467413917,0
68792829920,68792829920,68792829920,68467413917,0
68854189918,68854189918,68854189918,68467413917,0
68874357920,68874357920,68874357920,68467413917,0
67572885916,67572885916,67572885916,0,0
67634341920,67634341920,67634341920,0,0
67695533920,67695533920,67695533920,0,0
67755925918,67755925918,67755925918,0,0
67817037918,67817037918,67817037918,0,0
67877589920,67877589920,67877589920,0,0
67938645920,67938645920,67938645920,0,0
67999725920,67999725920,67999725920,0,0
68060517920,68060517920,68060517920,67857493920,0
68121229921,68121229921,68121229921,67857493920,0
68182485920,68182485920,68182485920,67857493920,0
68243349920,68243349920,68243349920,67857493920,0
68304717916,68304717916,68304717916,67857493920,0
68366381917,68366381917,68366381917,68161861918,0
68427253920,68427253920,68427253920,68161861918,0
68487525920,68487525920,68487525920,68161861918,0
68548805920,68548805920,68548805920,68161861918,0
68609669920,68609669920,68609669920,68161861918,0
68670709920,68670709920,68670709920,68467413917,0
68731709920,68731709920,68731709920,68467413917,0
68792829920,68792829920,68792829920,68467413917,0
68854189918,68854189918,68854189918,68467413917,0
68894525917,68894525917,68894525917,68467413917,0
67572885916,67572885916,67572885916,0,0
67634341920,67634341920,67634341920,0,0
67695533920,67695533920,67695533920,0,0
67755925918,67755925918,67755925918,0,0
67817037918,67817037918,67817037918,0,0
67877589920,67877589920,67877589920,0,0
67938645920,67938645920,67938645920,0,0
67999725920,67999725920,67999725920,0,0
68060517920,68060517920,68060517920,67857493920,0
68121229921,68121229921,68121229921,67857493920,0
68182485920,68182485920,68182485920,67857493920,0
68243349920,68243349920,68243349920,67857493920,0
68304717916,68304717916,68304717916,67857493920,0
68366381917,68366381917,68366381917,68161861918,0
68427253920,68427253920,68427253920,68161861918,0
68487525920,68487525920,68487525920,68161861918,0
68548805920,68548805920,68548805920,68161861918,0
68609669920,68609669920,68609669920,68161861918,0
68670709920,68670709920,68670709920,68467413917,0
68731709920,68731709920,68731709920,68467413917,0
68792829920,68792829920,68792829920,68467413917,0
68854189918,68854189918,68854189918,68467413917,0
68915109919,68915109919,68915109919,68467413917,0
67572885916,67572885916,67572885916,0,0
67634341920,67634341920,67634341920,0,0
67695533920,67695533920,67695533920,0,0
67755925918,67755925918,67755925918,0,0
67817037918,67817037918,67817037918,0,0
67877589920,67877589920,67877589920,0,0
67938645920,67938645920,67938645920,0,0
67999725920,67999725920,67999725920,0,0
68060517920,68060517920,68060517920,67857493920,0
68121229921,68121229921,68121229921,67857493920,0
68182485920,68182485920,68182485920,67857493920,0
68243349920,68243349920,68243349920,67857493920,0
68304717916,68304717916,68304717916,67857493920,0
68366381917,68366381917,68366381917,68161861918,0
68427253920,68427253920,68427253920,68161861918,0
68487525920,68487525920,68487525920,68161861918,0
68548805920,68548805920,68548805920,68161861918,0
68609669920,68609669920,68609669920,68161861918,0
68670709920,68670709920,68670709920,68467413917,0
68731709920,68731709920,68731709920,68467413917,0
68792829920,68792829920,68792829920,68467413917,0
68854189918,68854189918,68854189918,68467413917,0
68915109919,68915109919,68915109919,68467413917,0
68935445920,68935445920,68935445920,68467413917,0
67572885916,67572885916,67572885916,0,0
67634341920,67634341920,67634341920,0,0
67695533920,67695533920,67695533920,0,0
67755925918,67755925918,67755925918,0,0
67817037918,67817037918,67817037918,0,0
67877589920,67877589920,67877589920,0,0
67938645920,67938645920,67938645920,0,0
67999725920,67999725920,67999725920,0,0
68060517920,68060517920,68060517920,67857493920,0
68121229921,68121229921,68121229921,67857493920,0
68182485920,68182485920,68182485920,67857493920,0
68243349920,68243349920,68243349920,67857493920,0
68304717916,68304717916,68304717916,67857493920,0
68366381917,68366381917,68366381917,68161861918,0
68427253920,68427253920,68427253920,68161861918,0
68487525920,68487525920,68487525920,68161861918,0
68548805920,68548805920,68548805920,68161861918,0
68609669920,68609669920,68609669920,68161861918,0
68670709920,68670709920,68670709920,68467413917,0
68731709920,68731709920,68731709920,68467413917,0
68792829920,68792829920,68792829920,68467413917,0
68854189918,68854189918,68854189918,68467413917,0
68915109919,68915109919,68915109919,68467413917,0
68955669918,68955669918,68955669918,68772349920,0
67572885916,67572885916,67572885916,0,0
67634341920,67634341920,67634341920,0,0
67695533920,67695533920,67695533920,0,0
67755925918,67755925918,67755925918,0,0
67817037918,67817037918,67817037918,0,0
67877589920,67877589920,67877589920,0,0
67938645920,67938645920,67938645920,0,0
67999725920,67999725920,67999725920,0,0
68060517920,68060517920,68060517920,67857493920,0
68121229921,68121229921,68121229921,67857493920,0
68182485920,68182485920,68182485920,67857493920,0
68243349920,68243349920,68243349920,67857493920,0
68304717916,68304717916,68304717916,67857493920,0
68366381917,68366381917,68366381917,68161861918,0
68427253920,68427253920,68427253920,68161861918,0
68487525920,68487525920,68487525920,68161861918,0
68548805920,68548805920,68548805920,68161861918,0
68609669920,68609669920,68609669920,68161861918,0
68670709920,68670709920,68670709920,68467413917,0
68731709920,68731709920,68731709920,68467413917,0
68792829920,68792829920,68792829920,68467413917,0
68854189918,68854189918,68854189918,68467413917,0
68915109919,68915109919,68915109919,68467413917,0
68976213920,68976213920,68976213920,68772349920,0
67572885916,67572885916,67572885916,0,0
67634341920,67634341920,67634341920,0,0
67695533920,67695533920,67695533920,0,0
67755925918,67755925918,67755925918,0,0
67817037918,67817037918,67817037918,0,0
67877589920,67877589920,67877589920,0,0
67938645920,67938645920,67938645920,0,0
67999725920,67999725920,67999725920,0,0
68060517920,68060517920,68060517920,67857493920,0
68121229921,68121229921,68121229921,67857493920,0
68182485920,68182485920,68182485920,67857493920,0
68243349920,68243349920,68243349920,67857493920,0
68304717916,68304717916,68304717916,67857493920,0
68366381917,68366381917,68366381917,68161861918,0
68427253920,68427253920,68427253920,68161861918,0
68487525920,68487525920,68487525920,68161861918,0
68548805920,68548805920,68548805920,68161861918,0
68609669920,68609669920,68609669920,68161861918,0
68670709920,68670709920,68670709920,68467413917,0
68731709920,68731709920,68731709920,68467413917,0
68792829920,68792829920,68792829920,68467413917,0
68854189918,68854189918,68854189918,68467413917,0
68915109919,68915109919,68915109919,68467413917,0
68976213920,68976213920,68976213920,68772349920,0
68996925920,68996925920,68996925920,68772349920,0
67572885916,67572885916,67572885916,0,0
67634341920,67634341920,67634341920,0,0
67695533920,67695533920,67695533920,0,0
67755925918,67755925918,67755925918,0,0
67817037918,67817037918,67817037918,0,0
67877589920,67877589920,67877589920,0,0
67938645920,67938645920,67938645920,0,0
67999725920,67999725920,67999725920,0,0
68060517920,68060517920,68060517920,67857493920,0
68121229921,68121229921,68121229921,67857493920,0
68182485920,68182485920,68182485920,67857493920,0
68243349920,68243349920,68243349920,67857493920,0
68304717916,68304717916,68304717916,67857493920,0
68366381917,68366381917,68366381917,68161861918,0
68427253920,68427253920,68427253920,68161861918,0
68487525920,68487525920,68487525920,68161861918,0
68548805920,68548805920,68548805920,68161861918,0
68609669920,68609669920,68609669920,68161861918,0
68670709920,68670709920,68670709920,68467413917,0
68731709920,68731709920,68731709920,68467413917,0
68792829920,68792829920,68792829920,68467413917,0
68854189918,68854189918,68854189918,68467413917,0
68915109919,68915109919,68915109919,68467413917,0
68976213920,68976213920,68976213920,68772349920,0
69017013920,69017013920,69017013920,68772349920,0
67572885916,67572885916,67572885916,0,0
67634341920,67634341920,67634341920,0,0
67695533920,67695533920,67695533920,0,0
67755925918,67755925918,67755925918,0,0
67817037918,67817037918,67817037918,0,0
67877589920,67877589920,67877589920,0,0
67938645920,67938645920,67938645920,0,0
67999725920,67999725920,67999725920,0,0
68060517920,68060517920,68060517920,67857493920,0
68121229921,68121229921,68121229921,67857493920,0
68182485920,68182485920,68182485920,67857493920,0
68243349920,68243349920,68243349920,67857493920,0
68304717916,68304717916,68304717916,67857493920,0
68366381917,68366381917,68366381917,68161861918,0
68427253920,68427253920,68427253920,68161861918,0
68487525920,68487525920,68487525920,68161861918,0
68548805920,68548805920,68548805920,68161861918,0
68609669920,68609669920,68609669920,68161861918,0
68670709920,68670709920,68670709920,68467413917,0
68731709920,68731709920,68731709920,68467413917,0
68792829920,68792829920,68792829920,68467413917,0
68854189918,68854189918,68854189918,68467413917,0
68915109919,68915109919,68915109919,68467413917,0
68976213920,68976213920,68976213920,68772349920,0
69037565917,69037565917,69037565917,68772349920,0
67572885916,67572885916,67572885916,0,0
67634341920,67634341920,67634341920,0,0
67695533920,67695533920,67695533920,0,0
67755925918,67755925918,67755925918,0,0
67817037918,67817037918,67817037918,0,0
67877589920,67877589920,67877589920,0,0
67938645920,67938645920,67938645920,0,0
67999725920,67999725920,67999725920,0,0
68060517920,68060517920,68060517920,67857493920,0
68121229921,68121229921,68121229921,67857493920,0
68182485920,68182485920,68182485920,67857493920,0
68243349920,68243349920,68243349920,67857493920,0
68304717916,68304717916,68304717916,67857493920,0
68366381917,68366381917,68366381917,68161861918,0
68427253920,68427253920,68427253920,68161861918,0
68487525920,68487525920,68487525920,68161861918,0
68548805920,68548805920,68548805920,68161861918,0
68609669920,68609669920,68609669920,68161861918,0
68670709920,68670709920,68670709920,68467413917,0
68731709920,68731709920,68731709920,68467413917,0
68792829920,68792829920,68792829920,68467413917,0
68854189918,68854189918,68854189918,68467413917,0
68915109919,68915109919,68915109919,68467413917,0
68976213920,68976213920,68976213920,68772349920,0
69037565917,69037565917,69037565917,68772349920,0
69058013916,69058013916,69058013916,68772349920,0
67572885916,67572885916,67572885916,0,0
67634341920,67634341920,67634341920,0,0
67695533920,67695533920,67695533920,0,0
67755925918,67755925918,67755925918,0,0
67817037918,67817037918,67817037918,0,0
67877589920,67877589920,67877589920,0,0
67938645920,67938645920,67938645920,0,0
67999725920,67999725920,67999725920,0,0
68060517920,68060517920,68060517920,67857493920,0
68121229921,68121229921,68121229921,67857493920,0
68182485920,68182485920,68182485920,67857493920,0
68243349920,68243349920,68243349920,67857493920,0
68304717916,68304717916,68304717916,67857493920,0
68366381917,68366381917,68366381917,68161861918,0
68427253920,68427253920,68427253920,68161861918,0
68487525920,68487525920,68487525920,68161861918,0
68548805920,68548805920,68548805920,68161861918,0
68609669920,68609669920,68609669920,68161861918,0
68670709920,68670709920,68670709920,68467413917,0
68731709920,68731709920,68731709920,68467413917,0
68792829920,68792829920,68792829920,68467413917,0
68854189918,68854189918,68854189918,68467413917,0
68915109919,68915109919,68915109919,68467413917,0
68976213920,68976213920,68976213920,68772349920,0
69037565917,69037565917,69037565917,68772349920,0
69078029918,69078029918,69078029918,68772349920,0
67572885916,67572885916,67572885916,0,0
67634341920,67634341920,67634341920,0,0
67695533920,67695533920,67695533920,0,0
67755925918,67755925918,67755925918,0,0
67817037918,67817037918,67817037918,0,0
67877589920,67877589920,67877589920,0,0
67938645920,67938645920,67938645920,0,0
67999725920,67999725920,67999725920,0,0
68060517920,68060517920,68060517920,67857493920,0
68121229921,68121229921,68121229921,67857493920,0
68182485920,68182485920,68182485920,67857493920,0
68243349920,68243349920,68243349920,67857493920,0
68304717916,68304717916,68304717916,67857493920,0
68366381917,68366381917,68366381917,68161861918,0
68427253920,68427253920,68427253920,68161861918,0
68487525920,68487525920,68487525920,68161861918,0
68548805920,68548805920,68548805920,68161861918,0
68609669920,68609669920,68609669920,68161861918,0
68670709920,68670709920,68670709920,68467413917,0
68731709920,68731709920,68731709920,68467413917,0
68792829920,68792829920,68792829920,68467413917,0
68854189918,68854189918,68854189918,68467413917,0
68915109919,68915109919,68915109919,68467413917,0
68976213920,68976213920,68976213920,68772349920,0
69037565917,69037565917,69037565917,68772349920,0
69098181920,69098181920,69098181920,68772349920,0
67572885916,67572885916,67572885916,0,0
67634341920,67634341920,67634341920,0,0
67695533920,67695533920,67695533920,0,0
67755925918,67755925918,67755925918,0,0
67817037918,67817037918,67817037918,0,0
67877589920,67877589920,67877589920,0,0
67938645920,67938645920,67938645920,0,0
67999725920,67999725920,67999725920,0,0
68060517920,68060517920,68060517920,67857493920,0
68121229921,68121229921,68121229921,67857493920,0
68182485920,68182485920,68182485920,67857493920,0
68243349920,68243349920,68243349920,67857493920,0
68304717916,68304717916,68304717916,67857493920,0
68366381917,68366381917,68366381917,68161861918,0
68427253920,68427253920,68427253920,68161861918,0
68487525920,68487525920,68487525920,68161861918,0
68548805920,68548805920,68548805920,68161861918,0
68609669920,68609669920,68609669920,68161861918,0
68670709920,68670709920,68670709920,68467413917,0
68731709920,68731709920,68731709920,68467413917,0
68792829920,68792829920,68792829920,68467413917,0
68854189918,68854189918,68854189918,68467413917,0
68915109919,68915109919,68915109919,68467413917,0
68976213920,68976213920,68976213920,68772349920,0
69037565917,69037565917,69037565917,68772349920,0
69098181920,69098181920,69098181920,68772349920,0
69118757920,69118757920,69118757920,68772349920,0
67572885916,67572885916,67572885916,0,0
67634341920,67634341920,67634341920,0,0
67695533920,67695533920,67695533920,0,0
67755925918,67755925918,67755925918,0,0
67817037918,67817037918,67817037918,0,0
67877589920,67877589920,67877589920,0,0
67938645920,67938645920,67938645920,0,0
67999725920,67999725920,67999725920,0,0
68060517920,68060517920,68060517920,67857493920,0
68121229921,68121229921,68121229921,67857493920,0
68182485920,68182485920,68182485920,67857493920,0
68243349920,68243349920,68243349920,67857493920,0
68304717916,68304717916,68304717916,67857493920,0
68366381917,68366381917,68366381917,68161861918,0
68427253920,68427253920,68427253920,68161861918,0
68487525920,68487525920,68487525920,68161861918,0
68548805920,68548805920,68548805920,68161861918,0
68609669920,68609669920,68609669920,68161861918,0
68670709920,68670709920,68670709920,68467413917,0
68731709920,68731709920,68731709920,68467413917,0
68792829920,68792829920,68792829920,68467413917,0
68854189918,68854189918,68854189918,68467413917,0
68915109919,68915109919,68915109919,68467413917,0
68976213920,68976213920,68976213920,68772349920,0
69037565917,69037565917,69037565917,68772349920,0
69098181920,69098181920,69098181920,68772349920,0
69139109920,69139109920,69139109920,68772349920,0
67572885916,67572885916,67572885916,0,0
67634341920,67634341920,67634341920,0,0
67695533920,67695533920,67695533920,0,0
67755925918,67755925918,67755925918,0,0
67817037918,67817037918,67817037918,0,0
67877589920,67877589920,67877589920,0,0
67938645920,67938645920,67938645920,0,0
67999725920,67999725920,67999725920,0,0
68060517920,68060517920,68060517920,67857493920,0
68121229921,68121229921,68121229921,67857493920,0
68182485920,68182485920,68182485920,67857493920,0
68243349920,68243349920,68243349920,67857493920,0
68304717916,68304717916,68304717916,67857493920,0
68366381917,68366381917,68366381917,68161861918,0
68427253920,68427253920,68427253920,68161861918,0
68487525920,68487525920,68487525920,68161861918,0
68548805920,68548805920,68548805920,68161861918,0
68609669920,68609669920,68609669920,68161861918,0
68670709920,68670709920,68670709920,68467413917,0
68731709920,68731709920,68731709920,68467413917,0
68792829920,68792829920,68792829920,68467413917,0
68854189918,68854189918,68854189918,68467413917,0
68915109919,68915109919,68915109919,68467413917,0
68976213920,68976213920,68976213920,68772349920,0
69037565917,69037565917,69037565917,68772349920,0
69098181920,69098181920,69098181920,68772349920,0
69159517920,69159517920,69159517920,68772349920,0
67572885916,67572885916,67572885916,0,0
67634341920,67634341920,67634341920,0,0
67695533920,67695533920,67695533920,0,0
67755925918,67755925918,67755925918,0,0
67817037918,67817037918,67817037918,0,0
67877589920,67877589920,67877589920,0,0
67938645920,67938645920,67938645920,0,0
67999725920,67999725920,67999725920,0,0
68060517920,68060517920,68060517920,67857493920,0
68121229921,68121229921,68121229921,67857493920,0
68182485920,68182485920,68182485920,67857493920,0
68243349920,68243349920,68243349920,67857493920,0
68304717916,68304717916,68304717916,67857493920,0
68366381917,68366381917,68366381917,68161861918,0
68427253920,68427253920,68427253920,68161861918,0
68487525920,68487525920,68487525920,68161861918,0
68548805920,68548805920,68548805920,68161861918,0
68609669920,68609669920,68609669920,68161861918,0
68670709920,68670709920,68670709920,68467413917,0
68731709920,68731709920,68731709920,68467413917,0
68792829920,68792829920,68792829920,68467413917,0
68854189918,68854189918,68854189918,68467413917,0
68915109919,68915109919,68915109919,68467413917,0
68976213920,68976213920,68976213920,68772349920,0
69037565917,69037565917,69037565917,68772349920,0
69098181920,69098181920,69098181920,68772349920,0
69159517920,69159517920,69159517920,68772349920,0
69179621918,69179621918,69179621918,68772349920,0
67572885916,67572885916,67572885916,0,0
67634341920,67634341920,67634341920,0,0
67695533920,67695533920,67695533920,0,0
67755925918,67755925918,67755925918,0,0
67817037918,67817037918,67817037918,0,0
67877589920,67877589920,67877589920,0,0
67938645920,67938645920,67938645920,0,0
67999725920,67999725920,67999725920,0,0
68060517920,68060517920,68060517920,67857493920,0
68121229921,68121229921,68121229921,67857493920,0
68182485920,68182485920,68182485920,67857493920,0
68243349920,68243349920,68243349920,67857493920,0
68304717916,68304717916,68304717916,67857493920,0
68366381917,68366381917,68366381917,68161861918,0
68427253920,68427253920,68427253920,68161861918,0
68487525920,68487525920,68487525920,68161861918,0
68548805920,68548805920,68548805920,68161861918,0
68609669920,68609669920,68609669920,68161861918,0
68670709920,68670709920,68670709920,68467413917,0
68731709920,68731709920,68731709920,68467413917,0
68792829920,68792829920,68792829920,68467413917,0
68854189918,68854189918,68854189918,68467413917,0
68915109919,68915109919,68915109919,68467413917,0
68976213920,68976213920,68976213920,68772349920,0
69037565917,69037565917,69037565917,68772349920,0
69098181920,69098181920,69098181920,68772349920,0
69159517920,69159517920,69159517920,68772349920,0
69199765917,69199765917,69199765917,68772349920,0
67572885916,67572885916,67572885916,0,0
67634341920,67634341920,67634341920,0,0
67695533920,67695533920,67695533920,0,0
67755925918,67755925918,67755925918,0,0
67817037918,67817037918,67817037918,0,0
67877589920,67877589920,67877589920,0,0
67938645920,67938645920,67938645920,0,0
67999725920,67999725920,67999725920,0,0
68060517920,68060517920,68060517920,67857493920,0
68121229921,68121229921,68121229921,67857493920,0
68182485920,68182485920,68182485920,67857493920,0
68243349920,68243349920,68243349920,67857493920,0
68304717916,68304717916,68304717916,67857493920,0
68366381917,68366381917,68366381917,68161861918,0
68427253920,68427253920,68427253920,68161861918,0
68487525920,68487525920,68487525920,68161861918,0
68548805920,68548805920,68548805920,68161861918,0
68609669920,68609669920,68609669920,68161861918,0
68670709920,68670709920,68670709920,68467413917,0
68731709920,68731709920,68731709920,68467413917,0
68792829920,68792829920,68792829920,68467413917,0
68854189918,68854189918,68854189918,68467413917,0
68915109919,68915109919,68915109919,68467413917,0
68976213920,68976213920,68976213920,68772349920,0
69037565917,69037565917,69037565917,68772349920,0
69098181920,69098181920,69098181920,68772349920,0
69159517920,69159517920,69159517920,68772349920,0
69220069920,69220069920,69220069920,68772349920,0
67572885916,67572885916,67572885916,0,0
67634341920,67634341920,67634341920,0,0
67695533920,67695533920,67695533920,0,0
67755925918,67755925918,67755925918,0,0
67817037918,67817037918,67817037918,0,0
67877589920,67877589920,67877589920,0,0
67938645920,67938645920,67938645920,0,0
67999725920,67999725920,67999725920,0,0
68060517920,68060517920,68060517920,67857493920,0
68121229921,68121229921,68121229921,67857493920,0
68182485920,68182485920,68182485920,67857493920,0
68243349920,68243349920,68243349920,67857493920,0
68304717916,68304717916,68304717916,67857493920,0
68366381917,68366381917,68366381917,68161861918,0
68427253920,68427253920,68427253920,68161861918,0
68487525920,68487525920,68487525920,68161861918,0
68548805920,68548805920,68548805920,68161861918,0
68609669920,68609669920,68609669920,68161861918,0
68670709920,68670709920,68670709920,68467413917,0
68731709920,68731709920,68731709920,68467413917,0
68792829920,68792829920,68792829920,68467413917,0
68854189918,68854189918,68854189918,68467413917,0
68915109919,68915109919,68915109919,68467413917,0
68976213920,68976213920,68976213920,68772349920,0
69037565917,69037565917,69037565917,68772349920,0
69098181920,69098181920,69098181920,68772349920,0
69159517920,69159517920,69159517920,68772349920,0
69220069920,69220069920,69220069920,68772349920,0
69240357916,69240357916,69240357916,68772349920,0
67572885916,67572885916,67572885916,0,0
67634341920,67634341920,67634341920,0,0
67695533920,67695533920,67695533920,0,0
67755925918,67755925918,67755925918,0,0
67817037918,67817037918,67817037918,0,0
67877589920,67877589920,67877589920,0,0
67938645920,67938645920,67938645920,0,0
67999725920,67999725920,67999725920,0,0
68060517920,68060517920,68060517920,67857493920,0
68121229921,68121229921,68121229921,67857493920,0
68182485920,68182485920,68182485920,67857493920,0
68243349920,68243349920,68243349920,67857493920,0
68304717916,68304717916,68304717916,67857493920,0
68366381917,68366381917,68366381917,68161861918,0
68427253920,68427253920,68427253920,68161861918,0
68487525920,68487525920,68487525920,68161861918,0
68548805920,68548805920,68548805920,68161861918,0
68609669920,68609669920,68609669920,68161861918,0
68670709920,68670709920,68670709920,68467413917,0
68731709920,68731709920,68731709920,68467413917,0
68792829920,68792829920,68792829920,68467413917,0
68854189918,68854189918,68854189918,68467413917,0
68915109919,68915109919,68915109919,68467413917,0
68976213920,68976213920,68976213920,68772349920,0
69037565917,69037565917,69037565917,68772349920,0
69098181920,69098181920,69098181920,68772349920,0
69159517920,69159517920,69159517920,68772349920,0
69220069920,69220069920,69220069920,68772349920,0
69260653920,69260653920,69260653920,69078029918,0
67572885916,67572885916,67572885916,0,0
67634341920,67634341920,67634341920,0,0
67695533920,67695533920,67695533920,0,0
67755925918,67755925918,67755925918,0,0
67817037918,67817037918,67817037918,0,0
67877589920,67877589920,67877589920,0,0
67938645920,67938645920,67938645920,0,0
67999725920,67999725920,67999725920,0,0
68060517920,68060517920,68060517920,67857493920,0
68121229921,68121229921,68121229921,67857493920,0
68182485920,68182485920,68182485920,67857493920,0
68243349920,68243349920,68243349920,67857493920,0
68304717916,68304717916,68304717916,67857493920,0
68366381917,68366381917,68366381917,68161861918,0
68427253920,68427253920,68427253920,68161861918,0
68487525920,68487525920,68487525920,68161861918,0
68548805920,68548805920,68548805920,68161861918,0
68609669920,68609669920,68609669920,68161861918,0
68670709920,68670709920,68670709920,68467413917,0
68731709920,68731709920,68731709920,68467413917,0
68792829920,68792829920,68792829920,68467413917,0
68854189918,68854189918,68854189918,68467413917,0
68915109919,68915109919,68915109919,68467413917,0
68976213920,68976213920,68976213920,68772349920,0
69037565917,69037565917,69037565917,68772349920,0
69098181920,69098181920,69098181920,68772349920,0
69159517920,69159517920,69159517920,68772349920,0
69220069920,69220069920,69220069920,68772349920,0
69281221917,69281221917,69281221917,69078029918,0
67572885916,67572885916,67572885916,0,0
67634341920,67634341920,67634341920,0,0
67695533920,67695533920,67695533920,0,0
67755925918,67755925918,67755925918,0,0
67817037918,67817037918,67817037918,0,0
67877589920,67877589920,67877589920,0,0
67938645920,67938645920,67938645920,0,0
67999725920,67999725920,67999725920,0,0
68060517920,68060517920,68060517920,67857493920,0
68121229921,68121229921,68121229921,67857493920,0
68182485920,68182485920,68182485920,67857493920,0
68243349920,68243349920,68243349920,67857493920,0
68304717916,68304717916,68304717916,67857493920,0
68366381917,68366381917,68366381917,68161861918,0
68427253920,68427253920,68427253920,68161861918,0
68487525920,68487525920,68487525920,68161861918,0
68548805920,68548805920,68548805920,68161861918,0
68609669920,68609669920,68609669920,68161861918,0
68670709920,68670709920,68670709920,68467413917,0
68731709920,68731709920,68731709920,68467413917,0
68792829920,68792829920,68792829920,68467413917,0
68854189918,68854189918,68854189918,68467413917,0
68915109919,68915109919,68915109919,68467413917,0
68976213920,68976213920,68976213920,68772349920,0
69037565917,69037565917,69037565917,68772349920,0
69098181920,69098181920,69098181920,68772349920,0
69159517920,69159517920,69159517920,68772349920,0
69220069920,69220069920,69220069920,68772349920,0
69281221917,69281221917,69281221917,69078029918,0
69301349917,69301349917,69301349917,69078029918,0
67572885916,67572885916,67572885916,0,0
67634341920,67634341920,67634341920,0,0
67695533920,67695533920,67695533920,0,0
67755925918,67755925918,67755925918,0,0
67817037918,67817037918,67817037918,0,0
67877589920,67877589920,67877589920,0,0
67938645920,67938645920,67938645920,0,0
67999725920,67999725920,67999725920,0,0
68060517920,68060517920,68060517920,67857493920,0
68121229921,68121229921,68121229921,67857493920,0
68182485920,68182485920,68182485920,67857493920,0
68243349920,68243349920,68243349920,67857493920,0
68304717916,68304717916,68304717916,67857493920,0
68366381917,68366381917,68366381917,68161861918,0
68427253920,68427253920,68427253920,68161861918,0
68487525920,68487525920,68487525920,68161861918,0
68548805920,68548805920,68548805920,68161861918,0
68609669920,68609669920,68609669920,68161861918,0
68670709920,68670709920,68670709920,68467413917,0
68731709920,68731709920,68731709920,68467413917,0
68792829920,68792829920,68792829920,68467413917,0
68854189918,68854189918,68854189918,68467413917,0
68915109919,68915109919,68915109919,68467413917,0
68976213920,68976213920,68976213920,68772349920,0
69037565917,69037565917,69037565917,68772349920,0
69098181920,69098181920,69098181920,68772349920,0
69159517920,69159517920,69159517920,68772349920,0
69220069920,69220069920,69220069920,68772349920,0
69281221917,69281221917,69281221917,69078029918,0
69321909916,69321909916,69321909916,69078029918,0
67572885916,67572885916,67572885916,0,0
67634341920,67634341920,67634341920,0,0
67695533920,67695533920,67695533920,0,0
67755925918,67755925918,67755925918,0,0
67817037918,67817037918,67817037918,0,0
67877589920,67877589920,67877589920,0,0
67938645920,67938645920,67938645920,0,0
67999725920,67999725920,67999725920,0,0
68060517920,68060517920,68060517920,67857493920,0
68121229921,68121229921,68121229921,67857493920,0
68182485920,68182485920,68182485920,67857493920,0
68243349920,68243349920,68243349920,67857493920,0
68304717916,68304717916,68304717916,67857493920,0
68366381917,68366381917,68366381917,68161861918,0
68427253920,68427253920,68427253920,68161861918,0
68487525920,68487525920,68487525920,68161861918,0
68548805920,68548805920,68548805920,68161861918,0
68609669920,68609669920,68609669920,68161861918,0
68670709920,68670709920,68670709920,68467413917,0
68731709920,68731709920,68731709920,68467413917,0
68792829920,68792829920,68792829920,68467413917,0
68854189918,68854189918,68854189918,68467413917,0
68915109919,68915109919,68915109919,68467413917,0
68976213920,68976213920,68976213920,68772349920,0
69037565917,69037565917,69037565917,68772349920,0
69098181920,69098181920,69098181920,68772349920,0
69159517920,69159517920,69159517920,68772349920,0
69220069920,69220069920,69220069920,68772349920,0
69281221917,69281221917,69281221917,69078029918,0
69342085920,69342085920,69342085920,69078029918,0
67572885916,67572885916,67572885916,0,0
67634341920,67634341920,67634341920,0,0
67695533920,67695533920,67695533920,0,0
67755925918,67755925918,67755925918,0,0
67817037918,67817037918,67817037918,0,0
67877589920,67877589920,67877589920,0,0
67938645920,67938645920,67938645920,0,0
67999725920,67999725920,67999725920,0,0
68060517920,68060517920,68060517920,67857493920,0
68121229921,68121229921,68121229921,67857493920,0
68182485920,68182485920,68182485920,67857493920,0
68243349920,68243349920,68243349920,67857493920,0
68304717916,68304717916,68304717916,67857493920,0
68366381917,68366381917,68366381917,68161861918,0
68427253920,68427253920,68427253920,68161861918,0
68487525920,68487525920,68487525920,68161861918,0
68548805920,68548805920,68548805920,68161861918,0
68609669920,68609669920,68609669920,68161861918,0
68670709920,68670709920,68670709920,68467413917,0
68731709920,68731709920,68731709920,68467413917,0
68792829920,68792829920,68792829920,68467413917,0
68854189918,68854189918,68854189918,68467413917,0
68915109919,68915109919,68915109919,68467413917,0
68976213920,68976213920,68976213920,68772349920,0
69037565917,69037565917,69037565917,68772349920,0
69098181920,69098181920,69098181920,68772349920,0
69159517920,69159517920,69159517920,68772349920,0
69220069920,69220069920,69220069920,68772349920,0
69281221917,69281221917,69281221917,69078029918,0
69342085920,69342085920,69342085920,69078029918,0
69362477920,69362477920,69362477920,69078029918,0
67572885916,67572885916,67572885916,0,0
67634341920,67634341920,67634341920,0,0
67695533920,67695533920,67695533920,0,0
67755925918,67755925918,67755925918,0,0
67817037918,67817037918,67817037918,0,0
67877589920,67877589920,67877589920,0,0
67938645920,67938645920,67938645920,0,0
67999725920,67999725920,67999725920,0,0
68060517920,68060517920,68060517920,67857493920,0
68121229921,68121229921,68121229921,67857493920,0
68182485920,68182485920,68182485920,67857493920,0
68243349920,68243349920,68243349920,67857493920,0
68304717916,68304717916,68304717916,67857493920,0
68366381917,68366381917,68366381917,68161861918,0
68427253920,68427253920,68427253920,68161861918,0
68487525920,68487525920,68487525920,68161861918,0
68548805920,68548805920,68548805920,68161861918,0
68609669920,68609669920,68609669920,68161861918,0
68670709920,68670709920,68670709920,68467413917,0
68731709920,68731709920,68731709920,68467413917,0
68792829920,68792829920,68792829920,68467413917,0
68854189918,68854189918,68854189918,68467413917,0
68915109919,68915109919,68915109919,68467413917,0
68976213920,68976213920,68976213920,68772349920,0
69037565917,69037565917,69037565917,68772349920,0
69098181920,69098181920,69098181920,68772349920,0
69159517920,69159517920,69159517920,68772349920,0
69220069920,69220069920,69220069920,68772349920,0
69281221917,69281221917,69281221917,69078029918,0
69342085920,69342085920,69342085920,69078029918,0
69382797918,69382797918,69382797918,69078029918,0
67572885916,67572885916,67572885916,0,0
67634341920,67634341920,67634341920,0,0
67695533920,67695533920,67695533920,0,0
67755925918,67755925918,67755925918,0,0
67817037918,67817037918,67817037918,0,0
67877589920,67877589920,67877589920,0,0
67938645920,67938645920,67938645920,0,0
67999725920,67999725920,67999725920,0,0
68060517920,68060517920,68060517920,67857493920,0
68121229921,68121229921,68121229921,67857493920,0
68182485920,68182485920,68182485920,67857493920,0
68243349920,68243349920,68243349920,67857493920,0
68304717916,68304717916,68304717916,67857493920,0
68366381917,68366381917,68366381917,68161861918,0
68427253920,68427253920,68427253920,68161861918,0
68487525920,68487525920,68487525920,68161861918,0
68548805920,68548805920,68548805920,68161861918,0
68609669920,68609669920,68609669920,68161861918,0
68670709920,68670709920,68670709920,68467413917,0
68731709920,68731709920,68731709920,68467413917,0
68792829920,68792829920,68792829920,68467413917,0
68854189918,68854189918,68854189918,68467413917,0
68915109919,68915109919,68915109919,68467413917,0
68976213920,68976213920,68976213920,68772349920,0
69037565917,69037565917,69037565917,68772349920,0
69098181920,69098181920,69098181920,68772349920,0
69159517920,69159517920,69159517920,68772349920,0
69220069920,69220069920,69220069920,68772349920,0
69281221917,69281221917,69281221917,69078029918,0
69342085920,69342085920,69342085920,69078029918,0
69402813920,69402813920,69402813920,69078029918,0
67572885916,67572885916,67572885916,0,0
67634341920,67634341920,67634341920,0,0
67695533920,67695533920,67695533920,0,0
67755925918,67755925918,67755925918,0,0
67817037918,67817037918,67817037918,0,0
67877589920,67877589920,67877589920,0,0
67938645920,67938645920,67938645920,0,0
67999725920,67999725920,67999725920,0,0
68060517920,68060517920,68060517920,67857493920,0
68121229921,68121229921,68121229921,67857493920,0
68182485920,68182485920,68182485920,67857493920,0
68243349920,68243349920,68243349920,67857493920,0
68304717916,68304717916,68304717916,67857493920,0
68366381917,68366381917,68366381917,68161861918,0
68427253920,68427253920,68427253920,68161861918,0
68487525920,68487525920,68487525920,68161861918,0
68548805920,68548805920,68548805920,68161861918,0
68609669920,68609669920,68609669920,68161861918,0
68670709920,68670709920,68670709920,68467413917,0
68731709920,68731709920,68731709920,68467413917,0
68792829920,68792829920,68792829920,68467413917,0
68854189918,68854189918,68854189918,68467413917,0
68915109919,68915109919,68915109919,68467413917,0
68976213920,68976213920,68976213920,68772349920,0
69037565917,69037565917,69037565917,68772349920,0
69098181920,69098181920,69098181920,68772349920,0
69159517920,69159517920,69159517920,68772349920,0
69220069920,69220069920,69220069920,68772349920,0
69281221917,69281221917,69281221917,69078029918,0
69342085920,69342085920,69342085920,69078029918,0
69402813920,69402813920,69402813920,69078029918,0
69423509916,69423509916,69423509916,69078029918,0
67572885916,67572885916,67572885916,0,0
67634341920,67634341920,67634341920,0,0
67695533920,67695533920,67695533920,0,0
67755925918,67755925918,67755925918,0,0
67817037918,67817037918,67817037918,0,0
67877589920,67877589920,67877589920,0,0
67938645920,67938645920,67938645920,0,0
67999725920,67999725920,67999725920,0,0
68060517920,68060517920,68060517920,67857493920,0
68121229921,68121229921,68121229921,67857493920,0
68182485920,68182485920,68182485920,67857493920,0
68243349920,68243349920,68243349920,67857493920,0
68304717916,68304717916,68304717916,67857493920,0
68366381917,68366381917,68366381917,68161861918,0
68427253920,68427253920,68427253920,68161861918,0
68487525920,68487525920,68487525920,68161861918,0
68548805920,68548805920,68548805920,68161861918,0
68609669920,68609669920,68609669920,68161861918,0
68670709920,68670709920,68670709920,68467413917,0
68731709920,68731709920,68731709920,68467413917,0
68792829920,68792829920,68792829920,68467413917,0
68854189918,68854189918,68854189918,68467413917,0
68915109919,68915109919,68915109919,68467413917,0
68976213920,68976213920,68976213920,68772349920,0
69037565917,69037565917,69037565917,68772349920,0
69098181920,69098181920,69098181920,68772349920,0
69159517920,69159517920,69159517920,68772349920,0
69220069920,69220069920,69220069920,68772349920,0
69281221917,69281221917,69281221917,69078029918,0
69342085920,69342085920,69342085920,69078029918,0
69402813920,69402813920,69402813920,69078029918,0
69443789920,69443789920,69443789920,69078029918,0
67572885916,67572885916,67572885916,0,0
67634341920,67634341920,67634341920,0,0
67695533920,67695533920,67695533920,0,0
67755925918,67755925918,67755925918,0,0
67817037918,67817037918,67817037918,0,0
67877589920,67877589920,67877589920,0,0
67938645920,67938645920,67938645920,0,0
67999725920,67999725920,67999725920,0,0
68060517920,68060517920,68060517920,67857493920,0
68121229921,68121229921,68121229921,67857493920,0
68182485920,68182485920,68182485920,67857493920,0
68243349920,68243349920,68243349920,67857493920,0
68304717916,68304717916,68304717916,67857493920,0
68366381917,68366381917,68366381917,68161861918,0
68427253920,68427253920,68427253920,68161861918,0
68487525920,68487525920,68487525920,68161861918,0
68548805920,68548805920,68548805920,68161861918,0
68609669920,68609669920,68609669920,68161861918,0
68670709920,68670709920,68670709920,68467413917,0
68731709920,68731709920,68731709920,68467413917,0
68792829920,68792829920,68792829920,68467413917,0
68854189918,68854189918,68854189918,68467413917,0
68915109919,68915109919,68915109919,68467413917,0
68976213920,68976213920,68976213920,68772349920,0
69037565917,69037565917,69037565917,68772349920,0
69098181920,69098181920,69098181920,68772349920,0
69159517920,69159517920,69159517920,68772349920,0
69220069920,69220069920,69220069920,68772349920,0
69281221917,69281221917,69281221917,69078029918,0
69342085920,69342085920,69342085920,69078029918,0
69402813920,69402813920,69402813920,69078029918,0
69464333920,69464333920,69464333920,69078029918,0
67572885916,67572885916,67572885916,0,0
67634341920,67634341920,67634341920,0,0
67695533920,67695533920,67695533920,0,0
67755925918,67755925918,67755925918,0,0
67817037918,67817037918,67817037918,0,0
67877589920,67877589920,67877589920,0,0
67938645920,67938645920,67938645920,0,0
67999725920,67999725920,67999725920,0,0
68060517920,68060517920,68060517920,67857493920,0
68121229921,68121229921,68121229921,67857493920,0
68182485920,68182485920,68182485920,67857493920,0
68243349920,68243349920,68243349920,67857493920,0
68304717916,68304717916,68304717916,67857493920,0
68366381917,68366381917,68366381917,68161861918,0
68427253920,68427253920,68427253920,68161861918,0
68487525920,68487525920,68487525920,68161861918,0
68548805920,68548805920,68548805920,68161861918,0
68609669920,68609669920,68609669920,68161861918,0
68670709920,68670709920,68670709920,68467413917,0
68731709920,68731709920,68731709920,68467413917,0
68792829920,68792829920,68792829920,68467413917,0
68854189918,68854189918,68854189918,68467413917,0
68915109919,68915109919,68915109919,68467413917,0
68976213920,68976213920,68976213920,68772349920,0
69037565917,69037565917,69037565917,68772349920,0
69098181920,69098181920,69098181920,68772349920,0
69159517920,69159517920,69159517920,68772349920,0
69220069920,69220069920,69220069920,68772349920,0
69281221917,69281221917,69281221917,69078029918,0
69342085920,69342085920,69342085920,69078029918,0
69402813920,69402813920,69402813920,69078029918,0
69464333920,69464333920,69464333920,69078029918,0
69484573918,69484573918,69484573918,69078029918,0
67572885916,67572885916,67572885916,0,0
67634341920,67634341920,67634341920,0,0
67695533920,67695533920,67695533920,0,0
67755925918,67755925918,67755925918,0,0
67817037918,67817037918,67817037918,0,0
67877589920,67877589920,67877589920,0,0
67938645920,67938645920,67938645920,0,0
67999725920,67999725920,67999725920,0,0
68060517920,68060517920,68060517920,67857493920,0
68121229921,68121229921,68121229921,67857493920,0
68182485920,68182485920,68182485920,67857493920,0
68243349920,68243349920,68243349920,67857493920,0
68304717916,68304717916,68304717916,67857493920,0
68366381917,68366381917,68366381917,68161861918,0
68427253920,68427253920,68427253920,68161861918,0
68487525920,68487525920,68487525920,68161861918,0
68548805920,68548805920,68548805920,68161861918,0
68609669920,68609669920,68609669920,68161861918,0
68670709920,68670709920,68670709920,68467413917,0
68731709920,68731709920,68731709920,68467413917,0
68792829920,68792829920,68792829920,68467413917,0
68854189918,68854189918,68854189918,68467413917,0
68915109919,68915109919,68915109919,68467413917,0
68976213920,68976213920,68976213920,68772349920,0
69037565917,69037565917,69037565917,68772349920,0
69098181920,69098181920,69098181920,68772349920,0
69159517920,69159517920,69159517920,68772349920,0
69220069920,69220069920,69220069920,68772349920,0
69281221917,69281221917,69281221917,69078029918,0
69342085920,69342085920,69342085920,69078029918,0
69402813920,69402813920,69402813920,69078029918,0
69464333920,69464333920,69464333920,69078029918,0
69504645920,69504645920,69504645920,69078029918,0
67572885916,67572885916,67572885916,0,0
67634341920,67634341920,67634341920,0,0
67695533920,67695533920,67695533920,0,0
67755925918,67755925918,67755925918,0,0
67817037918,67817037918,67817037918,0,0
67877589920,67877589920,67877589920,0,0
67938645920,67938645920,67938645920,0,0
67999725920,67999725920,67999725920,0,0
68060517920,68060517920,68060517920,67857493920,0
68121229921,68121229921,68121229921,67857493920,0
68182485920,68182485920,68182485920,67857493920,0
68243349920,68243349920,68243349920,67857493920,0
68304717916,68304717916,68304717916,67857493920,0
68366381917,68366381917,68366381917,68161861918,0
68427253920,68427253920,68427253920,68161861918,0
68487525920,68487525920,68487525920,68161861918,0
68548805920,68548805920,68548805920,68161861918,0
68609669920,68609669920,68609669920,68161861918,0
68670709920,68670709920,68670709920,68467413917,0
68731709920,68731709920,68731709920,68467413917,0
68792829920,68792829920,68792829920,68467413917,0
68854189918,68854189918,68854189918,68467413917,0
68915109919,68915109919,68915109919,68467413917,0
68976213920,68976213920,68976213920,68772349920,0
69037565917,69037565917,69037565917,68772349920,0
69098181920,69098181920,69098181920,68772349920,0
69159517920,69159517920,69159517920,68772349920,0
69220069920,69220069920,69220069920,68772349920,0
69281221917,69281221917,69281221917,69078029918,0
69342085920,69342085920,69342085920,69078029918,0
69402813920,69402813920,69402813920,69078029918,0
69464333920,69464333920,69464333920,69078029918,0
69524661920,69524661920,69524661920,69078029918,0
67572885916,67572885916,67572885916,0,0
67634341920,67634341920,67634341920,0,0
67695533920,67695533920,67695533920,0,0
67755925918,67755925918,67755925918,0,0
67817037918,67817037918,67817037918,0,0
67877589920,67877589920,67877589920,0,0
67938645920,67938645920,67938645920,0,0
67999725920,67999725920,67999725920,0,0
68060517920,68060517920,68060517920,67857493920,0
68121229921,68121229921,68121229921,67857493920,0
68182485920,68182485920,68182485920,67857493920,0
68243349920,68243349920,68243349920,67857493920,0
68304717916,68304717916,68304717916,67857493920,0
68366381917,68366381917,68366381917,68161861918,0
68427253920,68427253920,68427253920,68161861918,0
68487525920,68487525920,68487525920,68161861918,0
68548805920,68548805920,68548805920,68161861918,0
68609669920,68609669920,68609669920,68161861918,0
68670709920,68670709920,68670709920,68467413917,0
68731709920,68731709920,68731709920,68467413917,0
68792829920,68792829920,68792829920,68467413917,0
68854189918,68854189918,68854189918,68467413917,0
68915109919,68915109919,68915109919,68467413917,0
68976213920,68976213920,68976213920,68772349920,0
69037565917,69037565917,69037565917,68772349920,0
69098181920,69098181920,69098181920,68772349920,0
69159517920,69159517920,69159517920,68772349920,0
69220069920,69220069920,69220069920,68772349920,0
69281221917,69281221917,69281221917,69078029918,0
69342085920,69342085920,69342085920,69078029918,0
69402813920,69402813920,69402813920,69078029918,0
69464333920,69464333920,69464333920,69078029918,0
69524661920,69524661920,69524661920,69078029918,0
69545301921,69545301921,69545301921,69078029918,0
67572885916,67572885916,67572885916,0,0
67634341920,67634341920,67634341920,0,0
67695533920,67695533920,67695533920,0,0
67755925918,67755925918,67755925918,0,0
67817037918,67817037918,67817037918,0,0
67877589920,67877589920,67877589920,0,0
67938645920,67938645920,67938645920,0,0
67999725920,67999725920,67999725920,0,0
68060517920,68060517920,68060517920,67857493920,0
68121229921,68121229921,68121229921,67857493920,0
68182485920,68182485920,68182485920,67857493920,0
68243349920,68243349920,68243349920,67857493920,0
68304717916,68304717916,68304717916,67857493920,0
68366381917,68366381917,68366381917,68161861918,0
68427253920,68427253920,68427253920,68161861918,0
68487525920,68487525920,68487525920,68161861918,0
68548805920,68548805920,68548805920,68161861918,0
68609669920,68609669920,68609669920,68161861918,0
68670709920,68670709920,68670709920,68467413917,0
68731709920,68731709920,68731709920,68467413917,0
68792829920,68792829920,68792829920,68467413917,0
68854189918,68854189918,68854189918,68467413917,0
68915109919,68915109919,68915109919,68467413917,0
68976213920,68976213920,68976213920,68772349920,0
69037565917,69037565917,69037565917,68772349920,0
69098181920,69098181920,69098181920,68772349920,0
69159517920,69159517920,69159517920,68772349920,0
69220069920,69220069920,69220069920,68772349920,0
69281221917,69281221917,69281221917,69078029918,0
69342085920,69342085920,69342085920,69078029918,0
69402813920,69402813920,69402813920,69078029918,0
69464333920,69464333920,69464333920,69078029918,0
69524661920,69524661920,69524661920,69078029918,0
69565789920,69565789920,69565789920,69382797918,0
67572885916,67572885916,67572885916,0,0
67634341920,67634341920,67634341920,0,0
67695533920,67695533920,67695533920,0,0
67755925918,67755925918,67755925918,0,0
67817037918,67817037918,67817037918,0,0
67877589920,67877589920,67877589920,0,0
67938645920,67938645920,67938645920,0,0
67999725920,67999725920,67999725920,0,0
68060517920,68060517920,68060517920,67857493920,0
68121229921,68121229921,68121229921,67857493920,0
68182485920,68182485920,68182485920,67857493920,0
68243349920,68243349920,68243349920,67857493920,0
68304717916,68304717916,68304717916,67857493920,0
68366381917,68366381917,68366381917,68161861918,0
68427253920,68427253920,68427253920,68161861918,0
68487525920,68487525920,68487525920,68161861918,0
68548805920,68548805920,68548805920,68161861918,0
68609669920,68609669920,68609669920,68161861918,0
68670709920,68670709920,68670709920,68467413917,0
68731709920,68731709920,68731709920,68467413917,0
68792829920,68792829920,68792829920,68467413917,0
68854189918,68854189918,68854189918,68467413917,0
68915109919,68915109919,68915109919,68467413917,0
68976213920,68976213920,68976213920,68772349920,0
69037565917,69037565917,69037565917,68772349920,0
69098181920,69098181920,69098181920,68772349920,0
69159517920,69159517920,69159517920,68772349920,0
69220069920,69220069920,69220069920,68772349920,0
69281221917,69281221917,69281221917,69078029918,0
69342085920,69342085920,69342085920,69078029918,0
69402813920,69402813920,69402813920,69078029918,0
69464333920,69464333920,69464333920,69078029918,0
69524661920,69524661920,69524661920,69078029918,0
69586173918,69586173918,69586173918,69382797918,0
67572885916,67572885916,67572885916,0,0
67634341920,67634341920,67634341920,0,0
67695533920,67695533920,67695533920,0,0
67755925918,67755925918,67755925918,0,0
67817037918,67817037918,67817037918,0,0
67877589920,67877589920,67877589920,0,0
67938645920,67938645920,67938645920,0,0
67999725920,67999725920,67999725920,0,0
68060517920,68060517920,68060517920,67857493920,0
68121229921,68121229921,68121229921,67857493920,0
68182485920,68182485920,68182485920,67857493920,0
68243349920,68243349920,68243349920,67857493920,0
68304717916,68304717916,68304717916,67857493920,0
68366381917,68366381917,68366381917,68161861918,0
68427253920,68427253920,68427253920,68161861918,0
68487525920,68487525920,68487525920,68161861918,0
68548805920,68548805920,68548805920,68161861918,0
68609669920,68609669920,68609669920,68161861918,0
68670709920,68670709920,68670709920,68467413917,0
68731709920,68731709920,68731709920,68467413917,0
68792829920,68792829920,68792829920,68467413917,0
68854189918,68854189918,68854189918,68467413917,0
68915109919,68915109919,68915109919,68467413917,0
68976213920,68976213920,68976213920,68772349920,0
69037565917,69037565917,69037565917,68772349920,0
69098181920,69098181920,69098181920,68772349920,0
69159517920,69159517920,69159517920,68772349920,0
69220069920,69220069920,69220069920,68772349920,0
69281221917,69281221917,69281221917,69078029918,0
69342085920,69342085920,69342085920,69078029918,0
69402813920,69402813920,69402813920,69078029918,0
69464333920,69464333920,69464333920,69078029918,0
69524661920,69524661920,69524661920,69078029918,0
69586173918,69586173918,69586173918,69382797918,0
69606749920,69606749920,69606749920,69382797918,0
67572885916,67572885916,67572885916,0,0
67634341920,67634341920,67634341920,0,0
67695533920,67695533920,67695533920,0,0
67755925918,67755925918,67755925918,0,0
67817037918,67817037918,67817037918,0,0
67877589920,67877589920,67877589920,0,0
67938645920,67938645920,67938645920,0,0
67999725920,67999725920,67999725920,0,0
68060517920,68060517920,68060517920,67857493920,0
68121229921,68121229921,68121229921,67857493920,0
68182485920,68182485920,68182485920,67857493920,0
68243349920,68243349920,68243349920,67857493920,0
68304717916,68304717916,68304717916,67857493920,0
68366381917,68366381917,68366381917,68161861918,0
68427253920,68427253920,68427253920,68161861918,0
68487525920,68487525920,68487525920,68161861918,0
68548805920,68548805920,68548805920,68161861918,0
68609669920,68609669920,68609669920,68161861918,0
68670709920,68670709920,68670709920,68467413917,0
68731709920,68731709920,68731709920,68467413917,0
68792829920,68792829920,68792829920,68467413917,0
68854189918,68854189918,68854189918,68467413917,0
68915109919,68915109919,68915109919,68467413917,0
68976213920,68976213920,68976213920,68772349920,0
69037565917,69037565917,69037565917,68772349920,0
69098181920,69098181920,69098181920,68772349920,0
69159517920,69159517920,69159517920,68772349920,0
69220069920,69220069920,69220069920,68772349920,0
69281221917,69281221917,69281221917,69078029918,0
69342085920,69342085920,69342085920,69078029918,0
69402813920,69402813920,69402813920,69078029918,0
69464333920,69464333920,69464333920,69078029918,0
69524661920,69524661920,69524661920,69078029918,0
69586173918,69586173918,69586173918,69382797918,0
69626805917,69626805917,69626805917,69382797918,0
67572885916,67572885916,67572885916,0,0
67634341920,67634341920,67634341920,0,0
67695533920,67695533920,67695533920,0,0
67755925918,67755925918,67755925918,0,0
67817037918,67817037918,67817037918,0,0
67877589920,67877589920,67877589920,0,0
67938645920,67938645920,67938645920,0,0
67999725920,67999725920,67999725920,0,0
68060517920,68060517920,68060517920,67857493920,0
68121229921,68121229921,68121229921,67857493920,0
68182485920,68182485920,68182485920,67857493920,0
68243349920,68243349920,68243349920,67857493920,0
68304717916,68304717916,68304717916,67857493920,0
68366381917,68366381917,68366381917,68161861918,0
68427253920,68427253920,68427253920,68161861918,0
68487525920,68487525920,68487525920,68161861918,0
68548805920,68548805920,68548805920,68161861918,0
68609669920,68609669920,68609669920,68161861918,0
68670709920,68670709920,68670709920,68467413917,0
68731709920,68731709920,68731709920,68467413917,0
68792829920,68792829920,68792829920,68467413917,0
68854189918,68854189918,68854189918,68467413917,0
68915109919,68915109919,68915109919,68467413917,0
68976213920,68976213920,68976213920,68772349920,0
69037565917,69037565917,69037565917,68772349920,0
69098181920,69098181920,69098181920,68772349920,0
69159517920,69159517920,69159517920,68772349920,0
69220069920,69220069920,69220069920,68772349920,0
69281221917,69281221917,69281221917,69078029918,0
69342085920,69342085920,69342085920,69078029918,0
69402813920,69402813920,69402813920,69078029918,0
69464333920,69464333920,69464333920,69078029918,0
69524661920,69524661920,69524661920,69078029918,0
69586173918,69586173918,69586173918,69382797918,0
69646965920,69646965920,69646965920,69382797918,0
67572885916,67572885916,67572885916,0,0
67634341920,67634341920,67634341920,0,0
67695533920,67695533920,67695533920,0,0
67755925918,67755925918,67755925918,0,0
67817037918,67817037918,67817037918,0,0
67877589920,67877589920,67877589920,0,0
67938645920,67938645920,67938645920,0,0
67999725920,67999725920,67999725920,0,0
68060517920,68060517920,68060517920,67857493920,0
68121229921,68121229921,68121229921,67857493920,0
68182485920,68182485920,68182485920,67857493920,0
68243349920,68243349920,68243349920,67857493920,0
68304717916,68304717916,68304717916,67857493920,0
68366381917,68366381917,68366381917,68161861918,0
68427253920,68427253920,68427253920,68161861918,0
68487525920,68487525920,68487525920,68161861918,0
68548805920,68548805920,68548805920,68161861918,0
68609669920,68609669920,68609669920,68161861918,0
68670709920,68670709920,68670709920,68467413917,0
68731709920,68731709920,68731709920,68467413917,0
68792829920,68792829920,68792829920,68467413917,0
68854189918,68854189918,68854189918,68467413917,0
68915109919,68915109919,68915109919,68467413917,0
68976213920,68976213920,68976213920,68772349920,0
69037565917,69037565917,69037565917,68772349920,0
69098181920,69098181920,69098181920,68772349920,0
69159517920,69159517920,69159517920,68772349920,0
69220069920,69220069920,69220069920,68772349920,0
69281221917,69281221917,69281221917,69078029918,0
69342085920,69342085920,69342085920,69078029918,0
69402813920,69402813920,69402813920,69078029918,0
69464333920,69464333920,69464333920,69078029918,0
69524661920,69524661920,69524661920,69078029918,0
69586173918,69586173918,69586173918,69382797918,0
69646965920,69646965920,69646965920,69382797918,0
69667141920,69667141920,69667141920,69382797918,0
67572885916,67572885916,67572885916,0,0
67634341920,67634341920,67634341920,0,0
67695533920,67695533920,67695533920,0,0
67755925918,67755925918,67755925918,0,0
67817037918,67817037918,67817037918,0,0
67877589920,67877589920,67877589920,0,0
67938645920,67938645920,67938645920,0,0
67999725920,67999725920,67999725920,0,0
68060517920,68060517920,68060517920,67857493920,0
68121229921,68121229921,68121229921,67857493920,0
68182485920,68182485920,68182485920,67857493920,0
68243349920,68243349920,68243349920,67857493920,0
68304717916,68304717916,68304717916,67857493920,0
68366381917,68366381917,68366381917,68161861918,0
68427253920,68427253920,68427253920,68161861918,0
68487525920,68487525920,68487525920,68161861918,0
68548805920,68548805920,68548805920,68161861918,0
68609669920,68609669920,68609669920,68161861918,0
68670709920,68670709920,68670709920,68467413917,0
68731709920,68731709920,68731709920,68467413917,0
68792829920,68792829920,68792829920,68467413917,0
68854189918,68854189918,68854189918,68467413917,0
68915109919,68915109919,68915109919,68467413917,0
68976213920,68976213920,68976213920,68772349920,0
69037565917,69037565917,69037565917,68772349920,0
69098181920,69098181920,69098181920,68772349920,0
69159517920,69159517920,69159517920,68772349920,0
69220069920,69220069920,69220069920,68772349920,0
69281221917,69281221917,69281221917,69078029918,0
69342085920,69342085920,69342085920,69078029918,0
69402813920,69402813920,69402813920,69078029918,0
69464333920,69464333920,69464333920,69078029918,0
69524661920,69524661920,69524661920,69078029918,0
69586173918,69586173918,69586173918,69382797918,0
69646965920,69646965920,69646965920,69382797918,0
69687341920,69687341920,69687341920,69382797918,0
67572885916,67572885916,67572885916,0,0
67634341920,67634341920,67634341920,0,0
67695533920,67695533920,67695533920,0,0
67755925918,67755925918,67755925918,0,0
67817037918,67817037918,67817037918,0,0
67877589920,67877589920,67877589920,0,0
67938645920,67938645920,67938645920,0,0
67999725920,67999725920,67999725920,0,0
68060517920,68060517920,68060517920,67857493920,0
68121229921,68121229921,68121229921,67857493920,0
68182485920,68182485920,68182485920,67857493920,0
68243349920,68243349920,68243349920,67857493920,0
68304717916,68304717916,68304717916,67857493920,0
68366381917,68366381917,68366381917,68161861918,0
68427253920,68427253920,68427253920,68161861918,0
68487525920,68487525920,68487525920,68161861918,0
68548805920,68548805920,68548805920,68161861918,0
68609669920,68609669920,68609669920,68161861918,0
68670709920,68670709920,68670709920,68467413917,0
68731709920,68731709920,68731709920,68467413917,0
68792829920,68792829920,68792829920,68467413917,0
68854189918,68854189918,68854189918,68467413917,0
68915109919,68915109919,68915109919,68467413917,0
68976213920,68976213920,68976213920,68772349920,0
69037565917,69037565917,69037565917,68772349920,0
69098181920,69098181920,69098181920,68772349920,0
69159517920,69159517920,69159517920,68772349920,0
69220069920,69220069920,69220069920,68772349920,0
69281221917,69281221917,69281221917,69078029918,0
69342085920,69342085920,69342085920,69078029918,0
69402813920,69402813920,69402813920,69078029918,0
69464333920,69464333920,69464333920,69078029918,0
69524661920,69524661920,69524661920,69078029918,0
69586173918,69586173918,69586173918,69382797918,0
69646965920,69646965920,69646965920,69382797918,0
69707629917,69707629917,69707629917,69382797918,0
67572885916,67572885916,67572885916,0,0
67634341920,67634341920,67634341920,0,0
67695533920,67695533920,67695533920,0,0
67755925918,67755925918,67755925918,0,0
67817037918,67817037918,67817037918,0,0
67877589920,67877589920,67877589920,0,0
67938645920,67938645920,67938645920,0,0
67999725920,67999725920,67999725920,0,0
68060517920,68060517920,68060517920,67857493920,0
68121229921,68121229921,68121229921,67857493920,0
68182485920,68182485920,68182485920,67857493920,0
68243349920,68243349920,68243349920,67857493920,0
68304717916,68304717916,68304717916,67857493920,0
68366381917,68366381917,68366381917,68161861918,0
68427253920,68427253920,68427253920,68161861918,0
68487525920,68487525920,68487525920,68161861918,0
68548805920,68548805920,68548805920,68161861918,0
68609669920,68609669920,68609669920,68161861918,0
68670709920,68670709920,68670709920,68467413917,0
68731709920,68731709920,68731709920,68467413917,0
68792829920,68792829920,68792829920,68467413917,0
68854189918,68854189918,68854189918,68467413917,0
68915109919,68915109919,68915109919,68467413917,0
68976213920,68976213920,68976213920,68772349920,0
69037565917,69037565917,69037565917,68772349920,0
69098181920,69098181920,69098181920,68772349920,0
69159517920,69159517920,69159517920,68772349920,0
69220069920,69220069920,69220069920,68772349920,0
69281221917,69281221917,69281221917,69078029918,0
69342085920,69342085920,69342085920,69078029918,0
69402813920,69402813920,69402813920,69078029918,0
69464333920,69464333920,69464333920,69078029918,0
69524661920,69524661920,69524661920,69078029918,0
69586173918,69586173918,69586173918,69382797918,0
69646965920,69646965920,69646965920,69382797918,0
69707629917,69707629917,69707629917,69382797918,0
69728165918,69728165918,69728165918,69382797918,0
67572885916,67572885916,67572885916,0,0
67634341920,67634341920,67634341920,0,0
67695533920,67695533920,67695533920,0,0
67755925918,67755925918,67755925918,0,0
67817037918,67817037918,67817037918,0,0
67877589920,67877589920,67877589920,0,0
67938645920,67938645920,67938645920,0,0
67999725920,67999725920,67999725920,0,0
68060517920,68060517920,68060517920,67857493920,0
68121229921,68121229921,68121229921,67857493920,0
68182485920,68182485920,68182485920,67857493920,0
68243349920,68243349920,68243349920,67857493920,0
68304717916,68304717916,68304717916,67857493920,0
68366381917,68366381917,68366381917,68161861918,0
68427253920,68427253920,68427253920,68161861918,0
68487525920,68487525920,68487525920,68161861918,0
68548805920,68548805920,68548805920,68161861918,0
68609669920,68609669920,68609669920,68161861918,0
68670709920,68670709920,68670709920,68467413917,0
68731709920,68731709920,68731709920,68467413917,0
68792829920,68792829920,68792829920,68467413917,0
68854189918,68854189918,68854189918,68467413917,0
68915109919,68915109919,68915109919,68467413917,0
68976213920,68976213920,68976213920,68772349920,0
69037565917,69037565917,69037565917,68772349920,0
69098181920,69098181920,69098181920,68772349920,0
69159517920,69159517920,69159517920,68772349920,0
69220069920,69220069920,69220069920,68772349920,0
69281221917,69281221917,69281221917,69078029918,0
69342085920,69342085920,69342085920,69078029918,0
69402813920,69402813920,69402813920,69078029918,0
69464333920,69464333920,69464333920,69078029918,0
69524661920,69524661920,69524661920,69078029918,0
69586173918,69586173918,69586173918,69382797918,0
69646965920,69646965920,69646965920,69382797918,0
69707629917,69707629917,69707629917,69382797918,0
69748661920,69748661920,69748661920,69382797918,0
67572885916,67572885916,67572885916,0,0
67634341920,67634341920,67634341920,0,0
67695533920,67695533920,67695533920,0,0
67755925918,67755925918,67755925918,0,0
67817037918,67817037918,67817037918,0,0
67877589920,67877589920,67877589920,0,0
67938645920,67938645920,67938645920,0,0
67999725920,67999725920,67999725920,0,0
68060517920,68060517920,68060517920,67857493920,0
68121229921,68121229921,68121229921,67857493920,0
68182485920,68182485920,68182485920,67857493920,0
68243349920,68243349920,68243349920,67857493920,0
68304717916,68304717916,68304717916,67857493920,0
68366381917,68366381917,68366381917,68161861918,0
68427253920,68427253920,68427253920,68161861918,0
68487525920,68487525920,68487525920,68161861918,0
68548805920,68548805920,68548805920,68161861918,0
68609669920,68609669920,68609669920,68161861918,0
68670709920,68670709920,68670709920,68467413917,0
68731709920,68731709920,68731709920,68467413917,0
68792829920,68792829920,68792829920,68467413917,0
68854189918,68854189918,68854189918,68467413917,0
68915109919,68915109919,68915109919,68467413917,0
68976213920,68976213920,68976213920,68772349920,0
69037565917,69037565917,69037565917,68772349920,0
69098181920,69098181920,69098181920,68772349920,0
69159517920,69159517920,69159517920,68772349920,0
69220069920,69220069920,69220069920,68772349920,0
69281221917,69281221917,69281221917,69078029918,0
69342085920,69342085920,69342085920,69078029918,0
69402813920,69402813920,69402813920,69078029918,0
69464333920,69464333920,69464333920,69078029918,0
69524661920,69524661920,69524661920,69078029918,0
69586173918,69586173918,69586173918,69382797918,0
69646965920,69646965920,69646965920,69382797918,0
69707629917,69707629917,69707629917,69382797918,0
69768813917,69768813917,69768813917,69382797918,0
67572885916,67572885916,67572885916,0,0
67634341920,67634341920,67634341920,0,0
67695533920,67695533920,67695533920,0,0
67755925918,67755925918,67755925918,0,0
67817037918,67817037918,67817037918,0,0
67877589920,67877589920,67877589920,0,0
67938645920,67938645920,67938645920,0,0
67999725920,67999725920,67999725920,0,0
68060517920,68060517920,68060517920,67857493920,0
68121229921,68121229921,68121229921,67857493920,0
68182485920,68182485920,68182485920,67857493920,0
68243349920,68243349920,68243349920,67857493920,0
68304717916,68304717916,68304717916,67857493920,0
68366381917,68366381917,68366381917,68161861918,0
68427253920,68427253920,68427253920,68161861918,0
68487525920,68487525920,68487525920,68161861918,0
68548805920,68548805920,68548805920,68161861918,0
68609669920,68609669920,68609669920,68161861918,0
68670709920,68670709920,68670709920,68467413917,0
68731709920,68731709920,68731709920,68467413917,0
68792829920,68792829920,68792829920,68467413917,0
68854189918,68854189918,68854189918,68467413917,0
68915109919,68915109919,68915109919,68467413917,0
68976213920,68976213920,68976213920,68772349920,0
69037565917,69037565917,69037565917,68772349920,0
69098181920,69098181920,69098181920,68772349920,0
69159517920,69159517920,69159517920,68772349920,0
69220069920,69220069920,69220069920,68772349920,0
69281221917,69281221917,69281221917,69078029918,0
69342085920,69342085920,69342085920,69078029918,0
69402813920,69402813920,69402813920,69078029918,0
69464333920,69464333920,69464333920,69078029918,0
69524661920,69524661920,69524661920,69078029918,0
69586173918,69586173918,69586173918,69382797918,0
69646965920,69646965920,69646965920,69382797918,0
69707629917,69707629917,69707629917,69382797918,0
69768813917,69768813917,69768813917,69382797918,0
69789085917,69789085917,69789085917,69382797918,0
67572885916,67572885916,67572885916,0,0
67634341920,67634341920,67634341920,0,0
67695533920,67695533920,67695533920,0,0
67755925918,67755925918,67755925918,0,0
67817037918,67817037918,67817037918,0,0
67877589920,67877589920,67877589920,0,0
67938645920,67938645920,67938645920,0,0
67999725920,67999725920,67999725920,0,0
68060517920,68060517920,68060517920,67857493920,0
68121229921,68121229921,68121229921,67857493920,0
68182485920,68182485920,68182485920,67857493920,0
68243349920,68243349920,68243349920,67857493920,0
68304717916,68304717916,68304717916,67857493920,0
68366381917,68366381917,68366381917,68161861918,0
68427253920,68427253920,68427253920,68161861918,0
68487525920,68487525920,68487525920,68161861918,0
68548805920,68548805920,68548805920,68161861918,0
68609669920,68609669920,68609669920,68161861918,0
68670709920,68670709920,68670709920,68467413917,0
68731709920,68731709920,68731709920,68467413917,0
68792829920,68792829920,68792829920,68467413917,0
68854189918,68854189918,68854189918,68467413917,0
68915109919,68915109919,68915109919,68467413917,0
68976213920,68976213920,68976213920,68772349920,0
69037565917,69037565917,69037565917,68772349920,0
69098181920,69098181920,69098181920,68772349920,0
69159517920,69159517920,69159517920,68772349920,0
69220069920,69220069920,69220069920,68772349920,0
69281221917,69281221917,69281221917,69078029918,0
69342085920,69342085920,69342085920,69078029918,0
69402813920,69402813920,69402813920,69078029918,0
69464333920,69464333920,69464333920,69078029918,0
69524661920,69524661920,69524661920,69078029918,0
69586173918,69586173918,69586173918,69382797918,0
69646965920,69646965920,69646965920,69382797918,0
69707629917,69707629917,69707629917,69382797918,0
69768813917,69768813917,69768813917,69382797918,0
69809413920,69809413920,69809413920,69382797918,0
67572885916,67572885916,67572885916,0,0
67634341920,67634341920,67634341920,0,0
67695533920,67695533920,67695533920,0,0
67755925918,67755925918,67755925918,0,0
67817037918,67817037918,67817037918,0,0
67877589920,67877589920,67877589920,0,0
67938645920,67938645920,67938645920,0,0
67999725920,67999725920,67999725920,0,0
68060517920,68060517920,68060517920,67857493920,0
68121229921,68121229921,68121229921,67857493920,0
68182485920,68182485920,68182485920,67857493920,0
68243349920,68243349920,68243349920,67857493920,0
68304717916,68304717916,68304717916,67857493920,0
68366381917,68366381917,68366381917,68161861918,0
68427253920,68427253920,68427253920,68161861918,0
68487525920,68487525920,68487525920,68161861918,0
68548805920,68548805920,68548805920,68161861918,0
68609669920,68609669920,68609669920,68161861918,0
68670709920,68670709920,68670709920,68467413917,0
68731709920,68731709920,68731709920,68467413917,0
68792829920,68792829920,68792829920,68467413917,0
68854189918,68854189918,68854189918,68467413917,0
68915109919,68915109919,68915109919,68467413917,0
68976213920,68976213920,68976213920,68772349920,0
69037565917,69037565917,69037565917,68772349920,0
69098181920,69098181920,69098181920,68772349920,0
69159517920,69159517920,69159517920,68772349920,0
69220069920,69220069920,69220069920,68772349920,0
69281221917,69281221917,69281221917,69078029918,0
69342085920,69342085920,69342085920,69078029918,0
69402813920,69402813920,69402813920,69078029918,0
69464333920,69464333920,69464333920,69078029918,0
69524661920,69524661920,69524661920,69078029918,0
69586173918,69586173918,69586173918,69382797918,0
69646965920,69646965920,69646965920,69382797918,0
69707629917,69707629917,69707629917,69382797918,0
69768813917,69768813917,69768813917,69382797918,0
69829981920,69829981920,69829981920,69382797918,0
67572885916,67572885916,67572885916,0,0
67634341920,67634341920,67634341920,0,0
67695533920,67695533920,67695533920,0,0
67755925918,67755925918,67755925918,0,0
67817037918,67817037918,67817037918,0,0
67877589920,67877589920,67877589920,0,0
67938645920,67938645920,67938645920,0,0
67999725920,67999725920,67999725920,0,0
68060517920,68060517920,68060517920,67857493920,0
68121229921,68121229921,68121229921,67857493920,0
68182485920,68182485920,68182485920,67857493920,0
68243349920,68243349920,68243349920,67857493920,0
68304717916,68304717916,68304717916,67857493920,0
68366381917,68366381917,68366381917,68161861918,0
68427253920,68427253920,68427253920,68161861918,0
68487525920,68487525920,68487525920,68161861918,0
68548805920,68548805920,68548805920,68161861918,0
68609669920,68609669920,68609669920,68161861918,0
68670709920,68670709920,68670709920,68467413917,0
68731709920,68731709920,68731709920,68467413917,0
68792829920,68792829920,68792829920,68467413917,0
68854189918,68854189918,68854189918,68467413917,0
68915109919,68915109919,68915109919,68467413917,0
68976213920,68976213920,68976213920,68772349920,0
69037565917,69037565917,69037565917,68772349920,0
69098181920,69098181920,69098181920,68772349920,0
69159517920,69159517920,69159517920,68772349920,0
69220069920,69220069920,69220069920,68772349920,0
69281221917,69281221917,69281221917,69078029918,0
69342085920,69342085920,69342085920,69078029918,0
69402813920,69402813920,69402813920,69078029918,0
69464333920,69464333920,69464333920,69078029918,0
69524661920,69524661920,69524661920,69078029918,0
69586173918,69586173918,69586173918,69382797918,0
69646965920,69646965920,69646965920,69382797918,0
69707629917,69707629917,69707629917,69382797918,0
69768813917,69768813917,69768813917,69382797918,0
69829981920,69829981920,69829981920,69382797918,0
69850101920,69850101920,69850101920,69382797918,0
67572885916,67572885916,67572885916,0,0
67634341920,67634341920,67634341920,0,0
67695533920,67695533920,67695533920,0,0
67755925918,67755925918,67755925918,0,0
67817037918,67817037918,67817037918,0,0
67877589920,67877589920,67877589920,0,0
67938645920,67938645920,67938645920,0,0
67999725920,67999725920,67999725920,0,0
68060517920,68060517920,68060517920,67857493920,0
68121229921,68121229921,68121229921,67857493920,0
68182485920,68182485920,68182485920,67857493920,0
68243349920,68243349920,68243349920,67857493920,0
68304717916,68304717916,68304717916,67857493920,0
68366381917,68366381917,68366381917,68161861918,0
68427253920,68427253920,68427253920,68161861918,0
68487525920,68487525920,68487525920,68161861918,0
68548805920,68548805920,68548805920,68161861918,0
68609669920,68609669920,68609669920,68161861918,0
68670709920,68670709920,68670709920,68467413917,0
68731709920,68731709920,68731709920,68467413917,0
68792829920,68792829920,68792829920,68467413917,0
68854189918,68854189918,68854189918,68467413917,0
68915109919,68915109919,68915109919,68467413917,0
68976213920,68976213920,68976213920,68772349920,0
69037565917,69037565917,69037565917,68772349920,0
69098181920,69098181920,69098181920,68772349920,0
69159517920,69159517920,69159517920,68772349920,0
69220069920,69220069920,69220069920,68772349920,0
69281221917,69281221917,69281221917,69078029918,0
69342085920,69342085920,69342085920,69078029918,0
69402813920,69402813920,69402813920,69078029918,0
69464333920,69464333920,69464333920,69078029918,0
69524661920,69524661920,69524661920,69078029918,0
69586173918,69586173918,69586173918,69382797918,0
69646965920,69646965920,69646965920,69382797918,0
69707629917,69707629917,69707629917,69382797918,0
69768813917,69768813917,69768813917,69382797918,0
69829981920,69829981920,69829981920,69382797918,0
69870765917,69870765917,69870765917,69382797918,0
67572885916,67572885916,67572885916,0,0
67634341920,67634341920,67634341920,0,0
67695533920,67695533920,67695533920,0,0
67755925918,67755925918,67755925918,0,0
67817037918,67817037918,67817037918,0,0
67877589920,67877589920,67877589920,0,0
67938645920,67938645920,67938645920,0,0
67999725920,67999725920,67999725920,0,0
68060517920,68060517920,68060517920,67857493920,0
68121229921,68121229921,68121229921,67857493920,0
68182485920,68182485920,68182485920,67857493920,0
68243349920,68243349920,68243349920,67857493920,0
68304717916,68304717916,68304717916,67857493920,0
68366381917,68366381917,68366381917,68161861918,0
68427253920,68427253920,68427253920,68161861918,0
68487525920,68487525920,68487525920,68161861918,0
68548805920,68548805920,68548805920,68161861918,0
68609669920,68609669920,68609669920,68161861918,0
68670709920,68670709920,68670709920,68467413917,0
68731709920,68731709920,68731709920,68467413917,0
68792829920,68792829920,68792829920,68467413917,0
68854189918,68854189918,68854189918,68467413917,0
68915109919,68915109919,68915109919,68467413917,0
68976213920,68976213920,68976213920,68772349920,0
69037565917,69037565917,69037565917,68772349920,0
69098181920,69098181920,69098181920,68772349920,0
69159517920,69159517920,69159517920,68772349920,0
69220069920,69220069920,69220069920,68772349920,0
69281221917,69281221917,69281221917,69078029918,0
69342085920,69342085920,69342085920,69078029918,0
69402813920,69402813920,69402813920,69078029918,0
69464333920,69464333920,69464333920,69078029918,0
69524661920,69524661920,69524661920,69078029918,0
69586173918,69586173918,69586173918,69382797918,0
69646965920,69646965920,69646965920,69382797918,0
69707629917,69707629917,69707629917,69382797918,0
69768813917,69768813917,69768813917,69382797918,0
69829981920,69829981920,69829981920,69382797918,0
69891157921,69891157921,69891157921,69707629917,0
67572885916,67572885916,67572885916,0,0
67634341920,67634341920,67634341920,0,0
67695533920,67695533920,67695533920,0,0
67755925918,67755925918,67755925918,0,0
67817037918,67817037918,67817037918,0,0
67877589920,67877589920,67877589920,0,0
67938645920,67938645920,67938645920,0,0
67999725920,67999725920,67999725920,0,0
68060517920,68060517920,68060517920,67857493920,0
68121229921,68121229921,68121229921,67857493920,0
68182485920,68182485920,68182485920,67857493920,0
68243349920,68243349920,68243349920,67857493920,0
68304717916,68304717916,68304717916,67857493920,0
68366381917,68366381917,68366381917,68161861918,0
68427253920,68427253920,68427253920,68161861918,0
68487525920,68487525920,68487525920,68161861918,0
68548805920,68548805920,68548805920,68161861918,0
68609669920,68609669920,68609669920,68161861918,0
68670709920,68670709920,68670709920,68467413917,0
68731709920,68731709920,68731709920,68467413917,0
68792829920,68792829920,68792829920,68467413917,0
68854189918,68854189918,68854189918,68467413917,0
68915109919,68915109919,68915109919,68467413917,0
68976213920,68976213920,68976213920,68772349920,0
69037565917,69037565917,69037565917,68772349920,0
69098181920,69098181920,69098181920,68772349920,0
69159517920,69159517920,69159517920,68772349920,0
69220069920,69220069920,69220069920,68772349920,0
69281221917,69281221917,69281221917,69078029918,0
69342085920,69342085920,69342085920,69078029918,0
69402813920,69402813920,69402813920,69078029918,0
69464333920,69464333920,69464333920,69078029918,0
69524661920,69524661920,69524661920,69078029918,0
69586173918,69586173918,69586173918,69382797918,0
69646965920,69646965920,69646965920,69382797918,0
69707629917,69707629917,69707629917,69382797918,0
69768813917,69768813917,69768813917,69382797918,0
69829981920,69829981920,69829981920,69382797918,0
69891157921,69891157921,69891157921,69707629917,0
69911709917,69911709917,69911709917,69707629917,0
67572885916,67572885916,67572885916,0,0
67634341920,67634341920,67634341920,0,0
67695533920,67695533920,67695533920,0,0
67755925918,67755925918,67755925918,0,0
67817037918,67817037918,67817037918,0,0
67877589920,67877589920,67877589920,0,0
67938645920,67938645920,67938645920,0,0
67999725920,67999725920,67999725920,0,0
68060517920,68060517920,68060517920,67857493920,0
68121229921,68121229921,68121229921,67857493920,0
68182485920,68182485920,68182485920,67857493920,0
68243349920,68243349920,68243349920,67857493920,0
68304717916,68304717916,68304717916,67857493920,0
68366381917,68366381917,68366381917,68161861918,0
68427253920,68427253920,68427253920,68161861918,0
68487525920,68487525920,68487525920,68161861918,0
68548805920,68548805920,68548805920,68161861918,0
68609669920,68609669920,68609669920,68161861918,0
68670709920,68670709920,68670709920,68467413917,0
68731709920,68731709920,68731709920,68467413917,0
68792829920,68792829920,68792829920,68467413917,0
68854189918,68854189918,68854189918,68467413917,0
68915109919,68915109919,68915109919,68467413917,0
68976213920,68976213920,68976213920,68772349920,0
69037565917,69037565917,69037565917,68772349920,0
69098181920,69098181920,69098181920,68772349920,0
69159517920,69159517920,69159517920,68772349920,0
69220069920,69220069920,69220069920,68772349920,0
69281221917,69281221917,69281221917,69078029918,0
69342085920,69342085920,69342085920,69078029918,0
69402813920,69402813920,69402813920,69078029918,0
69464333920,69464333920,69464333920,69078029918,0
69524661920,69524661920,69524661920,69078029918,0
69586173918,69586173918,69586173918,69382797918,0
69646965920,69646965920,69646965920,69382797918,0
69707629917,69707629917,69707629917,69382797918,0
69768813917,69768813917,69768813917,69382797918,0
69829981920,69829981920,69829981920,69382797918,0
69891157921,69891157921,69891157921,69707629917,0
69932357920,69932357920,69932357920,69707629917,0
67572885916,67572885916,67572885916,0,0
67634341920,67634341920,67634341920,0,0
67695533920,67695533920,67695533920,0,0
67755925918,67755925918,67755925918,0,0
67817037918,67817037918,67817037918,0,0
67877589920,67877589920,67877589920,0,0
67938645920,67938645920,67938645920,0,0
67999725920,67999725920,67999725920,0,0
68060517920,68060517920,68060517920,67857493920,0
68121229921,68121229921,68121229921,67857493920,0
68182485920,68182485920,68182485920,67857493920,0
68243349920,68243349920,68243349920,67857493920,0
68304717916,68304717916,68304717916,67857493920,0
68366381917,68366381917,68366381917,68161861918,0
68427253920,68427253920,68427253920,68161861918,0
68487525920,68487525920,68487525920,68161861918,0
68548805920,68548805920,68548805920,68161861918,0
68609669920,68609669920,68609669920,68161861918,0
68670709920,68670709920,68670709920,68467413917,0
68731709920,68731709920,68731709920,68467413917,0
68792829920,68792829920,68792829920,68467413917,0
68854189918,68854189918,68854189918,68467413917,0
68915109919,68915109919,68915109919,68467413917,0
68976213920,68976213920,68976213920,68772349920,0
69037565917,69037565917,69037565917,68772349920,0
69098181920,69098181920,69098181920,68772349920,0
69159517920,69159517920,69159517920,68772349920,0
69220069920,69220069920,69220069920,68772349920,0
69281221917,69281221917,69281221917,69078029918,0
69342085920,69342085920,69342085920,69078029918,0
69402813920,69402813920,69402813920,69078029918,0
69464333920,69464333920,69464333920,69078029918,0
69524661920,69524661920,69524661920,69078029918,0
69586173918,69586173918,69586173918,69382797918,0
69646965920,69646965920,69646965920,69382797918,0
69707629917,69707629917,69707629917,69382797918,0
69768813917,69768813917,69768813917,69382797918,0
69829981920,69829981920,69829981920,69382797918,0
69891157921,69891157921,69891157921,69707629917,0
69952629920,69952629920,69952629920,69707629917,0
67572885916,67572885916,67572885916,0,0
67634341920,67634341920,67634341920,0,0
67695533920,67695533920,67695533920,0,0
67755925918,67755925918,67755925918,0,0
67817037918,67817037918,67817037918,0,0
67877589920,67877589920,67877589920,0,0
67938645920,67938645920,67938645920,0,0
67999725920,67999725920,67999725920,0,0
68060517920,68060517920,68060517920,67857493920,0
68121229921,68121229921,68121229921,67857493920,0
68182485920,68182485920,68182485920,67857493920,0
68243349920,68243349920,68243349920,67857493920,0
68304717916,68304717916,68304717916,67857493920,0
68366381917,68366381917,68366381917,68161861918,0
68427253920,68427253920,68427253920,68161861918,0
68487525920,68487525920,68487525920,68161861918,0
68548805920,68548805920,68548805920,68161861918,0
68609669920,68609669920,68609669920,68161861918,0
68670709920,68670709920,68670709920,68467413917,0
68731709920,68731709920,68731709920,68467413917,0
68792829920,68792829920,68792829920,68467413917,0
68854189918,68854189918,68854189918,68467413917,0
68915109919,68915109919,68915109919,68467413917,0
68976213920,68976213920,68976213920,68772349920,0
69037565917,69037565917,69037565917,68772349920,0
69098181920,69098181920,69098181920,68772349920,0
69159517920,69159517920,69159517920,68772349920,0
69220069920,69220069920,69220069920,68772349920,0
69281221917,69281221917,69281221917,69078029918,0
69342085920,69342085920,69342085920,69078029918,0
69402813920,69402813920,69402813920,69078029918,0
69464333920,69464333920,69464333920,69078029918,0
69524661920,69524661920,69524661920,69078029918,0
69586173918,69586173918,69586173918,69382797918,0
69646965920,69646965920,69646965920,69382797918,0
69707629917,69707629917,69707629917,69382797918,0
69768813917,69768813917,69768813917,69382797918,0
69829981920,69829981920,69829981920,69382797918,0
69891157921,69891157921,69891157921,69707629917,0
69952629920,69952629920,69952629920,69707629917,0
69972877921,69972877921,69972877921,69707629917,0
67572885916,67572885916,67572885916,0,0
67634341920,67634341920,67634341920,0,0
67695533920,67695533920,67695533920,0,0
67755925918,67755925918,67755925918,0,0
67817037918,67817037918,67817037918,0,0
67877589920,67877589920,67877589920,0,0
67938645920,67938645920,67938645920,0,0
67999725920,67999725920,67999725920,0,0
68060517920,68060517920,68060517920,67857493920,0
68121229921,68121229921,68121229921,67857493920,0
68182485920,68182485920,68182485920,67857493920,0
68243349920,68243349920,68243349920,67857493920,0
68304717916,68304717916,68304717916,67857493920,0
68366381917,68366381917,68366381917,68161861918,0
68427253920,68427253920,68427253920,68161861918,0
68487525920,68487525920,68487525920,68161861918,0
68548805920,68548805920,68548805920,68161861918,0
68609669920,68609669920,68609669920,68161861918,0
68670709920,68670709920,68670709920,68467413917,0
68731709920,68731709920,68731709920,68467413917,0
68792829920,68792829920,68792829920,68467413917,0
68854189918,68854189918,68854189918,68467413917,0
68915109919,68915109919,68915109919,68467413917,0
68976213920,68976213920,68976213920,68772349920,0
69037565917,69037565917,69037565917,68772349920,0
69098181920,69098181920,69098181920,68772349920,0
