t_us,window_start_t_us,window_end_t_us,beat_count,firmware_beat_count,insertion_ratio,recovery_ratio,dual_detector_ratio,single_detector_ratio,detector_consensus_mean,detector_time_spread_p95_ms,sequence_rescue_ratio,local_clip_ratio,firmware_unmatched_ratio,offset_p50_ms,offset_p95_ms,offset_signed_p50_ms,adjacent_offset_change_p95_ms,firmware_rr_rmssd_ms,firmware_rr_sdnn_ms,final_rr_rmssd_ms,final_rr_sdnn_ms,clipping_ratio
0,0,0,0,0,0.000000,0.000000,0.000000,0.000000,0.000000,0.000000,0.000000,0.000000,0.000000,0.000000,0.000000,0.000000,0.000000,0.000000,0.000000,0.000000,0.000000,0.000000
0,0,0,0,0,0.000000,0.000000,0.000000,0.000000,0.000000,0.000000,0.000000,0.000000,0.000000,0.000000,0.000000,0.000000,0.000000,0.000000,0.000000,0.000000,0.000000,0.000000
67552213920,0,0,0,0,0.000000,0.000000,0.000000,0.000000,0.000000,0.000000,0.000000,0.000000,0.000000,0.000000,0.000000,0.000000,0.000000,0.000000,0.000000,0.000000,0.000000,0.000000
67572885916,67553317921,67572885916,31,29,0.000000,0.000000,1.000000,0.000000,1.000000,0.000000,0.000000,0.032258,0.032258,0.000000,8.002100,0.000000,152.000400,98.905372,84.969080,34.458507,37.507843,0.035485
67593325916,67573469920,67593325916,31,30,0.064516,0.064516,0.935484,0.064516,0.982924,0.000000,0.064516,0.129032,0.193548,0.000000,240.001000,0.000000,240.001250,257.560945,149.113235,106.474931,96.731354,0.056785
67613837917,67594061920,67613837917,29,29,0.000000,0.000000,1.000000,0.000000,1.000000,0.000000,0.000000,0.034483,0.000000,0.000000,4.801200,0.000000,8.002650,24.295417,29.603633,23.702702,29.603664,0.025327
67634341920,67614565920,67634341920,30,27,0.000000,0.000000,1.000000,0.000000,0.998407,0.000000,0.000000,0.033333,0.033333,0.000000,132.800000,0.000000,241.999300,136.872795,97.568760,22.978437,41.987974,0.012000
67655053920,67635677918,67655053920,29,28,0.000000,0.000000,1.000000,0.000000,1.000000,0.000000,0.000000,0.000000,0.275862,0.000000,288.003000,0.000000,304.003000,209.701926,125.608155,27.839860,48.221569,0.003466
67675453921,67655733920,67675453921,30,29,0.000000,0.000000,1.000000,0.000000,1.000000,0.000000,0.000000,0.000000,0.033333,0.000000,8.002000,0.000000,8.002000,24.050318,18.856511,22.425203,18.142500,0.007998
67695533920,67676165917,67695533920,29,29,0.000000,0.000000,1.000000,0.000000,1.000000,0.000000,0.000000,0.000000,0.034483,0.000000,138.001400,0.000000,258.404200,152.561652,94.167960,31.439056,42.582540,0.013596
67715677920,67696221918,67715677920,28,27,0.000000,0.000000,1.000000,0.000000,1.000000,0.000000,0.000000,0.000000,0.071429,0.000000,253.999000,0.000000,254.399200,190.855868,123.857084,31.689329,48.098497,0.014929
67735733920,67716405918,67735733920,29,28,0.000000,0.000000,1.000000,0.000000,0.998071,0.000000,0.000000,0.034483,0.068966,0.000000,8.004000,0.000000,8.004000,78.573916,50.132162,28.306775,40.726023,0.011467
67755925918,67736341920,67755925918,31,30,0.000000,0.000000,1.000000,0.000000,1.000000,0.000000,0.000000,0.000000,0.032258,0.000000,8.003550,0.000000,8.004000,31.206245,31.169663,83.404206,89.272601,0.002400
67776373920,67756533921,67776373920,28,28,0.000000,0.000000,1.000000,0.000000,1.000000,0.000000,0.000000,0.000000,0.071429,0.000000,260.001500,0.000000,283.200200,131.078389,88.688334,24.506565,43.064428,0.000000
67796957921,67777173917,67796957921,30,29,0.000000,0.000000,1.000000,0.000000,0.998685,0.000000,0.000000,0.000000,0.033333,0.000000,152.000600,0.000000,166.800400,145.839583,94.783353,21.961265,36.964928,0.000000
67817037918,67797605920,67817037918,33,30,0.000000,0.000000,1.000000,0.000000,1.000000,0.000000,0.000000,0.000000,0.181818,0.000000,176.000000,0.000000,254.000750,150.223291,114.595834,33.635189,39.472959,0.001600
67837373920,67817709920,67837373920,28,29,0.000000,0.000000,1.000000,0.000000,1.000000,0.000000,0.000000,0.000000,0.071429,0.000000,259.997000,0.000000,236.797600,193.580175,124.386786,26.112620,30.136641,0.001600
67857493920,67838093917,67857493920,28,27,0.000000,0.000000,1.000000,0.000000,1.000000,0.000000,0.000000,0.035714,0.035714,0.000000,142.404000,0.000000,174.001750,171.548985,97.914970,29.351944,51.178817,0.005065
67877589920,67858229920,67877589920,29,28,0.000000,0.000000,1.000000,0.000000,1.000000,0.000000,0.000000,0.000000,0.068966,0.000000,204.002000,0.000000,223.999500,141.403538,94.975382,22.835930,39.035874,0.000000
67897765920,67878213920,67897765920,31,29,0.000000,0.000000,1.000000,0.000000,1.000000,0.000000,0.000000,0.000000,0.096774,0.000000,257.999600,0.000000,431.202800,197.895372,140.362589,27.312274,38.149620,0.015733
67918109917,67898381920,67918109917,28,29,0.000000,0.000000,1.000000,0.000000,1.000000,0.000000,0.000000,0.035714,0.035714,0.000000,291.998400,0.000000,304.000000,230.142713,150.706453,39.191177,70.723505,0.059451
67938645920,67918877920,67938645920,28,26,0.000000,0.000000,1.000000,0.000000,0.997918,0.000000,0.000000,0.000000,0.035714,0.000000,8.004000,0.000000,129.996750,126.681793,90.195160,80.568553,67.605466,0.059044
67958869916,67939245921,67958869916,30,27,0.000000,0.000000,1.000000,0.000000,1.000000,0.000000,0.000000,0.066667,0.066667,0.000000,8.002650,0.000000,198.400900,177.332231,116.090169,28.486047,71.952893,0.024527
67979597917,67959637916,67979597917,30,29,0.000000,0.000000,1.000000,0.000000,1.000000,0.000000,0.000000,0.000000,0.033333,0.000000,286.401600,0.000000,292.799450,140.904938,89.676714,95.523520,90.824909,0.006132
67999725920,67980325920,67999725920,29,28,0.000000,0.000000,1.000000,0.000000,1.000000,0.000000,0.000000,0.000000,0.034483,0.000000,8.003300,0.000000,204.003300,85.430425,80.674813,22.939767,60.939388,0.010933
68019797920,68000293920,68019797920,28,27,0.000000,0.000000,1.000000,0.000000,0.999925,0.000000,0.000000,0.035714,0.107143,0.000000,8.002400,0.000000,273.197900,247.649741,156.923645,108.425986,115.202731,0.019461
68040093920,68020621920,68040093920,26,26,0.000000,0.000000,1.000000,0.000000,1.000000,0.000000,0.000000,0.038462,0.038462,0.000000,8.000000,0.000000,273.196600,274.198190,172.834161,33.900846,40.257563,0.008533
68060517920,68040861920,68060517920,26,26,0.000000,0.000000,1.000000,0.000000,1.000000,0.000000,0.000000,0.000000,0.000000,0.000000,8.001750,0.000000,8.002000,38.365992,32.209181,41.951718,33.348183,0.008000
68080565920,68061293920,68080565920,27,27,0.000000,0.000000,1.000000,0.000000,1.000000,0.000000,0.000000,0.000000,0.074074,0.000000,326.400000,0.000000,578.400000,255.920288,147.358078,33.255722,40.282987,0.027193
68100765920,68081333921,68100765920,29,27,0.000000,0.000000,1.000000,0.000000,1.000000,0.000000,0.000000,0.137931,0.068966,7.996000,153.601600,0.000000,259.998000,147.746347,115.136961,33.092213,53.670792,0.081845
68121229921,68101469916,68121229921,28,27,0.000000,0.000000,1.000000,0.000000,1.000000,0.000000,0.000000,0.035714,0.000000,0.000000,8.002000,0.000000,8.002700,35.274004,33.977962,36.527166,38.709645,0.057067
68141829918,68122005921,68141829918,27,25,0.000000,0.000000,1.000000,0.000000,1.000000,0.000000,0.000000,0.074074,0.037037,0.000000,8.003750,0.000000,244.801600,104.254251,85.671112,31.190717,61.210257,0.051200
68161861918,68142597919,68161861918,27,26,0.000000,0.000000,1.000000,0.000000,1.000000,0.000000,0.000000,0.037037,0.111111,0.000000,301.600150,0.000000,309.597400,179.539708,134.297257,36.345665,40.797239,0.042655
68182485920,68162589917,68182485920,29,25,0.000000,0.000000,1.000000,0.000000,1.000000,0.000000,0.000000,0.206897,0.206897,0.000000,287.201300,0.000000,288.001000,439.403221,345.529364,214.619622,146.870112,0.094908
68203189917,68183245921,68203189917,29,27,0.000000,0.000000,1.000000,0.000000,1.000000,0.000000,0.000000,0.103448,0.068966,0.000000,164.800300,0.000000,274.003750,177.939961,106.715843,30.829193,34.528042,0.039190
68223325919,68203941917,68223325919,31,29,0.000000,0.000000,1.000000,0.000000,1.000000,0.000000,0.000000,0.000000,0.225806,0.000000,7.999850,0.000000,216.795500,347.353285,200.969468,25.254610,65.252918,0.000000
68243349920,68224045917,68243349920,28,28,0.000000,0.000000,1.000000,0.000000,1.000000,0.000000,0.000000,0.035714,0.035714,0.000000,280.000900,0.000000,280.001250,187.162340,124.173890,30.503357,43.203946,0.011467
68263485920,68244029920,68263485920,30,29,0.000000,0.000000,1.000000,0.000000,1.000000,0.000000,0.000000,0.000000,0.133333,232.001000,291.999000,0.000000,465.601200,258.160393,160.035068,27.297703,20.699042,0.006400
68284077917,68264093917,68284077917,30,30,0.000000,0.000000,1.000000,0.000000,1.000000,0.000000,0.000000,0.000000,0.033333,0.000000,7.996000,0.000000,117.196650,223.098013,132.342282,26.747240,40.664369,0.014133
68304717916,68284757919,68304717916,31,30,0.000000,0.000000,1.000000,0.000000,1.000000,0.000000,0.000000,0.064516,0.096774,0.000000,194.000950,0.000000,208.003400,185.535198,124.157191,114.659664,73.864077,0.038656
68325133920,68305357918,68325133920,29,30,0.000000,0.000000,1.000000,0.000000,1.000000,0.000000,0.000000,0.000000,0.034483,0.000000,300.798050,0.000000,311.999000,207.482571,125.322968,52.751257,40.433170,0.026126
68345661920,68325861921,68345661920,30,30,0.000000,0.000000,1.000000,0.000000,1.000000,0.000000,0.000000,0.000000,0.100000,0.000000,199.998400,0.000000,271.999750,225.516333,142.473206,32.319114,35.538231,0.012797
68366381917,68347069920,68366381917,27,28,0.000000,0.000000,1.000000,0.000000,1.000000,0.000000,0.000000,0.000000,0.037037,3.998000,286.000750,0.000000,313.602600,233.534584,149.868411,47.166415,72.113431,0.006400
68386773920,68367157917,68386773920,27,30,0.000000,0.000000,1.000000,0.000000,1.000000,0.000000,0.000000,0.000000,0.000000,0.000000,8.004000,0.000000,230.000250,269.904117,185.504166,33.180216,44.500333,0.010667
68407205917,68387509920,68407205917,27,29,0.000000,0.000000,1.000000,0.000000,1.000000,0.000000,0.000000,0.074074,0.074074,7.997000,272.000800,0.000000,307.201700,299.755926,202.103601,40.917955,35.760841,0.011467
68427253920,68408005920,68427253920,26,27,0.000000,0.000000,1.000000,0.000000,1.000000,0.000000,0.000000,0.000000,0.076923,0.000000,199.602150,0.000000,260.797500,310.246218,193.635928,47.046353,57.237709,0.002667
68447261917,68427925918,68447261917,28,28,0.000000,0.000000,1.000000,0.000000,1.000000,0.000000,0.000000,0.000000,0.000000,0.000000,271.198950,0.000000,299.197900,172.225343,115.064372,32.947670,38.390243,0.009331
68467413917,68448005919,68467413917,28,28,0.000000,0.000000,1.000000,0.000000,1.000000,0.000000,0.000000,0.000000,0.035714,0.000000,254.398300,0.000000,259.997500,194.389846,143.982961,27.625796,26.506433,0.010397
68487525920,68468101917,68487525920,29,28,0.000000,0.000000,1.000000,0.000000,1.000000,0.000000,0.000000,0.000000,0.000000,0.000000,8.001800,0.000000,8.003650,27.083711,38.018261,28.596742,37.829058,0.016262
68507725920,68488205921,68507725920,30,30,0.000000,0.000000,1.000000,0.000000,1.000000,0.000000,0.000000,0.033333,0.000000,0.000000,8.001100,0.000000,8.002600,22.117001,19.563833,19.123285,18.849483,0.030658
68528237920,68508413918,68528237920,30,29,0.000000,0.000000,1.000000,0.000000,1.000000,0.000000,0.000000,0.066667,0.033333,0.000000,8.003000,0.000000,8.003000,47.076700,43.299571,21.594682,23.381504,0.042655
68548805920,68528925920,68548805920,31,29,0.000000,0.000000,1.000000,0.000000,1.000000,0.000000,0.000000,0.032258,0.096774,3.999500,280.001600,0.000000,287.999000,215.351884,135.447658,21.166115,27.957373,0.053600
68569117920,68549373921,68569117920,31,26,0.000000,0.000000,1.000000,0.000000,1.000000,0.000000,0.000000,0.000000,0.193548,0.000000,236.800600,0.000000,196.399300,108.085858,84.370997,31.443497,40.734470,0.088776
68589549917,68569861918,68589549917,29,26,0.000000,0.000000,1.000000,0.000000,1.000000,0.000000,0.000000,0.000000,0.103448,0.000000,8.001000,0.000000,8.002600,610.412621,418.549880,131.750402,79.295820,0.084800
68609669920,68590245918,68609669920,29,29,0.000000,0.000000,1.000000,0.000000,1.000000,0.000000,0.000000,0.000000,0.000000,0.000000,8.000000,0.000000,8.000000,27.797874,39.304160,25.110116,38.635211,0.021594
68629717920,68610421916,68629717920,28,27,0.000000,0.000000,1.000000,0.000000,1.000000,0.000000,0.000000,0.000000,0.035714,0.000000,8.001000,0.000000,182.000250,98.201765,91.194717,30.423888,51.941196,0.005600
68649901920,68630429917,68649901920,26,29,0.000000,0.000000,1.000000,0.000000,1.000000,0.000000,0.000000,0.000000,0.076923,7.998500,294.795750,0.000000,303.194100,392.219306,242.020461,51.743373,94.907024,0.000000
68670709920,68651469918,68670709920,26,28,0.000000,0.000000,1.000000,0.000000,1.000000,0.000000,0.000000,0.000000,0.000000,0.000000,285.996750,0.000000,287.996000,235.030062,141.959294,43.756912,58.195164,0.000000
68690789920,68671445921,68690789920,26,29,0.000000,0.000000,1.000000,0.000000,1.000000,0.000000,0.000000,0.000000,0.038462,0.000000,292.796600,0.000000,294.796200,281.783948,168.741875,37.912232,45.986858,0.013067
68711357918,68691501920,68711357918,29,28,0.000000,0.000000,1.000000,0.000000,1.000000,0.000000,0.000000,0.000000,0.137931,0.000000,302.400000,0.000000,290.000000,248.614942,152.442227,48.417585,67.081772,0.043988
68731709920,68711981916,68731709920,31,29,0.000000,0.000000,1.000000,0.000000,0.999870,0.000000,0.000000,0.096774,0.129032,0.000000,187.199900,0.000000,205.998750,197.254466,121.524938,148.934587,91.682159,0.039989
68751773917,68732333917,68751773917,28,28,0.000000,0.000000,1.000000,0.000000,1.000000,0.000000,0.000000,0.035714,0.071429,0.000000,294.001750,0.000000,288.002600,207.040139,143.099825,27.846447,42.040369,0.021867
68772349920,68752517916,68772349920,30,29,0.000000,0.000000,1.000000,0.000000,1.000000,0.000000,0.000000,0.066667,0.100000,0.000000,261.601900,0.000000,253.997000,174.987331,104.807498,44.103482,46.284657,0.018928
68792829920,68773101921,68792829920,30,29,0.000000,0.000000,1.000000,0.000000,1.000000,0.000000,0.000000,0.000000,0.100000,0.000000,277.597000,0.000000,302.005250,202.035098,128.313557,35.904031,37.794906,0.023467
68813253920,68793557920,68813253920,29,28,0.000000,0.000000,1.000000,0.000000,1.000000,0.000000,0.000000,0.000000,0.241379,268.001000,311.597350,-268.001000,304.004000,292.491580,183.267636,39.283336,29.287435,0.009333
68833509920,68813957917,68833509920,29,28,0.000000,0.000000,1.000000,0.000000,1.000000,0.000000,0.000000,0.068966,0.000000,0.000000,278.401800,0.000000,185.601950,71.415835,51.391989,30.869177,29.281584,0.026984
68854189918,68834221917,68854189918,29,29,0.034483,0.034483,0.965517,0.034483,0.990746,0.000000,0.034483,0.068966,0.034483,0.000000,8.003000,0.000000,8.003700,150.677553,82.547739,71.155950,59.298357,0.006146
68874357920,68854885920,68874357920,28,29,0.000000,0.000000,1.000000,0.000000,1.000000,0.000000,0.000000,0.000000,0.035714,0.000000,288.002100,0.000000,280.000000,260.066716,155.385181,36.085906,43.462632,0.001333
68894525917,68875109921,68894525917,28,28,0.000000,0.000000,1.000000,0.000000,1.000000,0.000000,0.000000,0.000000,0.107143,0.000000,286.404000,0.000000,280.000000,381.358730,217.468444,42.390355,46.612664,0.001600
68915109919,68895269920,68915109919,28,29,0.000000,0.000000,1.000000,0.000000,1.000000,0.000000,0.000000,0.000000,0.035714,0.000000,269.600400,0.000000,282.001250,291.977123,180.866889,39.536173,43.462950,0.000000
68935445920,68915893920,68935445920,27,28,0.000000,0.000000,1.000000,0.000000,1.000000,0.000000,0.000000,0.000000,0.074074,0.000000,27.198400,0.000000,202.000400,322.804416,195.247119,42.150458,51.598797,0.030400
68955669918,68936221921,68955669918,28,29,0.000000,0.000000,1.000000,0.000000,1.000000,0.000000,0.000000,0.000000,0.000000,3.998000,309.198000,0.000000,299.995500,186.965378,121.586900,31.379258,42.764975,0.041600
68976213920,68956309921,68976213920,30,25,0.000000,0.000000,1.000000,0.000000,1.000000,0.000000,0.000000,0.066667,0.233333,0.000000,279.999700,0.000000,285.197100,694.698929,479.194160,80.086207,78.569988,0.089867
68996925920,68976925920,68996925920,29,28,0.000000,0.000000,1.000000,0.000000,1.000000,0.000000,0.000000,0.000000,0.241379,267.999500,303.197150,-267.999500,423.998000,385.944246,231.798717,26.534260,22.189556,0.044533
69017013920,68997605916,69017013920,29,29,0.000000,0.000000,1.000000,0.000000,1.000000,0.000000,0.000000,0.034483,0.000000,0.000000,8.000000,0.000000,8.000000,23.297471,24.557268,21.989843,23.872423,0.027200
69037565917,69017677919,69037565917,32,28,0.031250,0.031250,0.968750,0.031250,0.990965,0.000000,0.031250,0.031250,0.156250,0.000000,283.198700,0.000000,296.000250,242.941914,150.993534,91.238059,99.351109,0.021328
69058013916,69038165921,69058013916,31,28,0.000000,0.000000,1.000000,0.000000,1.000000,0.000000,0.000000,0.064516,0.096774,0.000000,263.601000,0.000000,264.801000,284.651888,174.845319,89.851221,111.153070,0.051986
69078029918,69058661918,69078029918,30,28,0.000000,0.000000,1.000000,0.000000,1.000000,0.000000,0.000000,0.066667,0.100000,0.000000,259.998600,0.000000,35.998000,301.971303,169.139086,29.587980,21.869464,0.041589
69098181920,69078653921,69098181920,32,28,0.000000,0.000000,1.000000,0.000000,0.996958,0.000000,0.000000,0.031250,0.125000,0.000000,143.200050,0.000000,243.997600,328.327949,189.004583,94.172327,85.615530,0.034400
69118757920,69098813921,69118757920,32,28,0.000000,0.000000,1.000000,0.000000,1.000000,0.000000,0.000000,0.031250,0.187500,0.000000,8.002000,0.000000,8.004600,287.375485,195.459325,157.236496,103.995602,0.034391
69139109920,69119413916,69139109920,30,29,0.000000,0.000000,1.000000,0.000000,1.000000,0.000000,0.000000,0.033333,0.033333,0.000000,248.001200,0.000000,249.999950,130.394194,85.470001,32.707396,27.576139,0.064783
69159517920,69139797920,69159517920,30,29,0.000000,0.000000,1.000000,0.000000,1.000000,0.000000,0.000000,0.033333,0.033333,0.000000,8.001000,0.000000,8.001000,41.282413,40.819996,95.629756,95.498260,0.054652
69179621918,69160213920,69179621918,29,27,0.000000,0.000000,1.000000,0.000000,1.000000,0.000000,0.000000,0.000000,0.034483,0.000000,8.002950,0.000000,181.599800,102.737896,79.340982,53.533303,45.266281,0.020533
69199765917,69180269917,69199765917,32,28,0.000000,0.000000,1.000000,0.000000,1.000000,0.000000,0.000000,0.031250,0.218750,0.000000,212.798200,0.000000,278.800850,200.318734,157.355876,19.375917,22.215674,0.025867
69220069920,69200381920,69220069920,26,29,0.000000,0.000000,1.000000,0.000000,1.000000,0.000000,0.000000,0.000000,0.000000,0.000000,269.998250,0.000000,278.395800,253.894191,160.375142,42.488163,76.944218,0.027459
69240357916,69220845918,69240357916,26,27,0.000000,0.000000,1.000000,0.000000,1.000000,0.000000,0.000000,0.000000,0.038462,0.000000,8.002600,0.000000,41.998750,180.338521,149.207985,48.798217,45.259232,0.010133
69260653920,69241029920,69260653920,26,29,0.000000,0.000000,1.000000,0.000000,1.000000,0.000000,0.000000,0.000000,0.153846,0.000000,303.596200,0.000000,303.996000,398.534512,245.221054,45.897052,38.940116,0.009331
69281221917,69261413920,69281221917,28,28,0.000000,0.000000,1.000000,0.000000,1.000000,0.000000,0.000000,0.035714,0.107143,0.000000,313.601200,0.000000,320.001000,408.778945,233.099554,41.001419,61.200596,0.016529
69301349917,69281949920,69301349917,24,27,0.000000,0.000000,1.000000,0.000000,1.000000,0.000000,0.000000,0.000000,0.041667,0.000000,267.198600,0.000000,311.599900,425.204760,250.939498,48.511637,86.122830,0.006933
69321909916,69302277920,69321909916,26,29,0.000000,0.000000,1.000000,0.000000,1.000000,0.000000,0.000000,0.000000,0.038462,0.000000,288.002600,0.000000,234.797600,352.982235,234.578275,43.664967,62.425559,0.029867
69342085920,69322669919,69342085920,29,28,0.000000,0.000000,1.000000,0.000000,1.000000,0.000000,0.000000,0.034483,0.137931,0.000000,292.803200,0.000000,302.800600,222.809708,144.176385,34.836456,45.414391,0.059717
69362477920,69342757920,69362477920,30,29,0.000000,0.000000,1.000000,0.000000,0.998020,0.000000,0.000000,0.066667,0.033333,0.000000,8.002600,0.000000,8.002650,25.016048,18.730573,97.312733,93.832839,0.046388
69382797918,69363093916,69382797918,27,27,0.000000,0.000000,1.000000,0.000000,1.000000,0.000000,0.000000,0.074074,0.259259,7.998500,312.403600,0.000000,336.797300,257.579860,176.094413,42.754525,70.927316,0.052253
69402813920,69383557918,69402813920,27,27,0.000000,0.000000,1.000000,0.000000,1.000000,0.000000,0.000000,0.074074,0.074074,0.000000,319.999000,0.000000,319.999250,302.081602,192.052201,115.387628,113.185829,0.026393
69423509916,69403517919,69423509916,29,28,0.000000,0.000000,1.000000,0.000000,1.000000,0.000000,0.000000,0.034483,0.137931,0.000000,319.999600,0.000000,316.398300,307.689937,194.639865,42.219027,50.296795,0.012797
69443789920,69424261921,69443789920,27,28,0.000000,0.000000,1.000000,0.000000,1.000000,0.000000,0.000000,0.000000,0.000000,0.000000,288.800900,0.000000,229.999750,169.837296,109.449632,30.399516,22.776694,0.016800
69464333920,69444605920,69464333920,27,29,0.000000,0.000000,1.000000,0.000000,1.000000,0.000000,0.000000,0.074074,0.037037,0.000000,318.000000,0.000000,318.403200,223.652090,147.769048,27.618973,29.820546,0.033858
69484573918,69465021917,69484573918,32,28,0.000000,0.000000,1.000000,0.000000,1.000000,0.000000,0.000000,0.093750,0.218750,0.000000,219.200800,0.000000,226.801050,257.022170,163.535804,82.209446,81.874041,0.075180
69504645920,69485213920,69504645920,30,28,0.033333,0.033333,0.966667,0.033333,0.993836,0.000000,0.033333,0.200000,0.066667,0.000000,143.200050,0.000000,249.597600,92.274810,80.213306,137.420417,84.465034,0.129333
69524661920,69505053921,69524661920,32,29,0.000000,0.000000,1.000000,0.000000,1.000000,0.000000,0.000000,0.125000,0.125000,0.000000,174.401350,0.000000,189.600400,194.192580,130.684880,72.868759,76.981587,0.091709
69545301921,69525421920,69545301921,27,29,0.000000,0.000000,1.000000,0.000000,1.000000,0.000000,0.000000,0.037037,0.037037,0.000000,320.002250,0.000000,334.402200,203.922059,136.841137,43.876263,44.980928,0.030667
69565789920,69546013921,69565789920,28,27,0.000000,0.000000,1.000000,0.000000,1.000000,0.000000,0.000000,0.000000,0.035714,0.000000,277.599600,0.000000,286.002250,240.785819,154.610912,43.928824,67.201718,0.004533
69586173918,69566477920,69586173918,28,28,0.000000,0.000000,1.000000,0.000000,1.000000,0.000000,0.000000,0.000000,0.000000,0.000000,301.198950,0.000000,30.397000,69.514395,44.354092,21.510785,24.003303,0.000000
69606749920,69586917920,69606749920,28,28,0.000000,0.000000,1.000000,0.000000,1.000000,0.000000,0.000000,0.000000,0.107143,0.000000,279.999800,0.000000,293.597450,245.656613,171.054488,41.716693,77.563894,0.002133
69626805917,69607541920,69626805917,28,27,0.000000,0.000000,1.000000,0.000000,1.000000,0.000000,0.000000,0.000000,0.071429,0.000000,280.000750,0.000000,268.800600,217.648952,134.634991,25.969711,75.015017,0.048787
69646965920,69627421918,69646965920,30,25,0.000000,0.000000,1.000000,0.000000,1.000000,0.000000,0.000000,0.066667,0.133333,0.000000,8.000500,0.000000,8.001000,636.314823,433.691222,34.904875,37.502403,0.069067
69667141920,69647629920,69667141920,30,30,0.000000,0.000000,1.000000,0.000000,1.000000,0.000000,0.000000,0.100000,0.000000,0.000000,7.998550,0.000000,7.999600,31.166796,30.262987,29.548508,30.035651,0.045867
69687341920,69667837916,69687341920,31,31,0.000000,0.000000,1.000000,0.000000,1.000000,0.000000,0.000000,0.064516,0.064516,0.000000,276.801600,0.000000,269.204000,162.105534,103.670041,21.681570,57.148197,0.053600
69707629917,69688069920,69707629917,29,29,0.000000,0.000000,1.000000,0.000000,1.000000,0.000000,0.000000,0.000000,0.000000,0.000000,8.003000,0.000000,8.003000,25.946578,41.930108,24.343322,41.884416,0.052800
69728165918,69708437920,69728165918,29,29,0.000000,0.000000,1.000000,0.000000,1.000000,0.000000,0.000000,0.137931,0.034483,0.000000,253.199450,0.000000,270.399800,150.220492,111.021012,27.840349,48.828818,0.051056
69748661920,69728829920,69748661920,30,29,0.000000,0.000000,1.000000,0.000000,1.000000,0.000000,0.000000,0.033333,0.066667,0.000000,8.003000,0.000000,8.003000,202.982011,155.575645,24.565156,34.714941,0.048650
69768813917,69749301917,69768813917,30,29,0.000000,0.000000,1.000000,0.000000,1.000000,0.000000,0.000000,0.000000,0.033333,0.000000,8.004000,0.000000,179.604000,72.882692,61.712208,26.185078,46.022837,0.017867
69789085917,69769525920,69789085917,29,29,0.000000,0.000000,1.000000,0.000000,1.000000,0.000000,0.000000,0.068966,0.000000,0.000000,8.002000,0.000000,8.003950,26.886957,40.503421,26.398227,39.854621,0.025333
69809413920,69789805916,69809413920,29,28,0.000000,0.000000,1.000000,0.000000,1.000000,0.000000,0.000000,0.034483,0.000000,0.000000,8.000000,0.000000,8.000000,31.454710,21.717598,29.452164,23.295856,0.056518
69829981920,69810101920,69829981920,29,28,0.000000,0.000000,1.000000,0.000000,1.000000,0.000000,0.000000,0.000000,0.000000,0.000000,8.003000,0.000000,8.003650,26.948247,30.530702,27.498493,29.504611,0.025593
69850101920,69830693918,69850101920,30,28,0.000000,0.000000,1.000000,0.000000,1.000000,0.000000,0.000000,0.066667,0.066667,0.000000,169.201750,0.000000,181.604300,124.529655,77.199846,18.578190,27.817904,0.035990
69870765917,69850805920,69870765917,30,29,0.000000,0.000000,1.000000,0.000000,1.000000,0.000000,0.000000,0.000000,0.000000,0.000000,8.003000,0.000000,8.003600,21.717636,22.828151,21.751151,22.574754,0.042922
69891157921,69871429920,69891157921,30,29,0.000000,0.000000,1.000000,0.000000,1.000000,0.000000,0.000000,0.200000,0.133333,0.000000,277.997000,0.000000,292.799400,294.241750,163.227824,26.186769,32.670433,0.055718
69911709917,69891821920,69911709917,31,30,0.000000,0.000000,1.000000,0.000000,1.000000,0.000000,0.000000,0.000000,0.064516,0.000000,255.999600,0.000000,23.598050,88.891787,55.781554,21.934083,27.128123,0.038933
69932357920,69912405920,69932357920,30,31,0.000000,0.000000,1.000000,0.000000,1.000000,0.000000,0.000000,0.000000,0.066667,0.000000,258.397350,0.000000,242.397300,225.001536,130.724531,24.658803,23.421895,0.038400
69952629920,69932989918,69952629920,31,30,0.032258,0.032258,0.967742,0.032258,0.994346,0.000000,0.032258,0.129032,0.032258,0.000000,198.001300,0.000000,264.001000,157.610208,90.894500,109.750058,69.459323,0.051453
69972877921,69953325918,69972877921,29,30,0.000000,0.000000,1.000000,0.000000,1.000000,0.000000,0.000000,0.000000,0.034483,0.000000,174.399750,0.000000,199.199200,257.976655,142.785727,33.377713,25.749198,0.005067
69993213920,69973589917,69993213920,28,29,0.000000,0.000000,1.000000,0.000000,1.000000,0.000000,0.000000,0.000000,0.035714,0.000000,19.201200,0.000000,227.997000,237.233973,147.116316,32.038035,33.991873,0.000533
70013549920,69993957920,70013549920,30,30,0.000000,0.000000,1.000000,0.000000,1.000000,0.000000,0.000000,0.000000,0.233333,7.997000,287.199700,0.000000,303.200000,286.818214,176.129381,28.565894,26.669294,0.044533
70033765917,70014197920,70033765917,31,27,0.000000,0.000000,1.000000,0.000000,1.000000,0.000000,0.000000,0.161290,0.225806,0.000000,285.598450,0.000000,241.600700,400.192497,321.910428,60.726576,39.902393,0.068267
70054477920,70034933920,70054477920,29,27,0.000000,0.000000,1.000000,0.000000,1.000000,0.000000,0.000000,0.034483,0.137931,0.000000,7.999800,0.000000,245.997450,438.810600,308.998340,37.459224,89.657670,0.111170
70074749920,70055229920,70074749920,27,23,0.000000,0.000000,1.000000,0.000000,1.000000,0.000000,0.000000,0.074074,0.148148,0.000000,8.000700,0.000000,8.001000,686.986827,472.770377,42.662358,36.040115,0.161290
70094829916,70075509920,70094829916,27,18,0.000000,0.000000,1.000000,0.000000,0.998211,0.000000,0.000000,0.037037,0.333333,0.000000,50.000700,0.000000,281.598200,1435.245490,1002.010702,156.867473,100.695196,0.102373
70115413920,70095525920,70115413920,29,28,0.000000,0.000000,1.000000,0.000000,1.000000,0.000000,0.000000,0.034483,0.000000,0.000000,8.000000,0.000000,8.000000,39.472507,28.672882,40.028864,30.665093,0.045854
70135597920,70116101916,70135597920,26,26,0.000000,0.000000,1.000000,0.000000,1.000000,0.000000,0.000000,0.000000,0.000000,0.000000,230.002250,0.000000,248.002000,196.142605,118.714781,31.198953,47.839517,0.000000
70155709920,70136373918,70155709920,24,23,0.000000,0.000000,1.000000,0.000000,1.000000,0.000000,0.000000,0.000000,0.125000,7.999000,319.998000,0.000000,300.400050,324.184132,202.966628,41.534827,63.494144,0.016262
70175789920,70156525918,70175789920,26,24,0.000000,0.000000,1.000000,0.000000,1.000000,0.000000,0.000000,0.000000,0.076923,0.000000,294.800450,0.000000,296.000000,158.759835,127.326683,48.579536,51.677141,0.049853
70196061920,70176581920,70196061920,27,26,0.000000,0.000000,1.000000,0.000000,1.000000,0.000000,0.000000,0.000000,0.037037,0.000000,8.000000,0.000000,8.002400,33.823089,33.145898,31.475847,31.430222,0.052253
70216821919,70196837920,70216821919,25,25,0.000000,0.000000,1.000000,0.000000,1.000000,0.000000,0.000000,0.000000,0.080000,0.000000,311.998900,0.000000,311.201800,296.047195,201.634952,39.120399,61.059420,0.106105
70237197920,70217653916,70237197920,26,21,0.000000,0.000000,1.000000,0.000000,1.000000,0.000000,0.000000,0.076923,0.192308,0.000000,264.000000,0.000000,66.403800,942.636729,630.777346,39.800536,55.161757,0.109067
70257357920,70237989920,70257357920,29,29,0.000000,0.000000,1.000000,0.000000,1.000000,0.000000,0.000000,0.034483,0.000000,0.000000,8.000000,0.000000,8.002600,21.444323,30.675082,22.257909,30.982606,0.031200
70277805917,70258013920,70277805917,31,30,0.000000,0.000000,1.000000,0.000000,0.999037,0.000000,0.000000,0.129032,0.032258,0.000000,8.002550,0.000000,8.003000,22.169954,23.914975,85.661808,90.234472,0.070933
70298053918,70278477918,70298053918,29,29,0.000000,0.000000,1.000000,0.000000,1.000000,0.000000,0.000000,0.034483,0.000000,0.000000,8.001800,0.000000,8.003000,27.152366,38.848426,26.712006,39.031074,0.030658
70318741916,70298789917,70318741916,34,29,0.000000,0.000000,1.000000,0.000000,0.993560,0.000000,0.000000,0.088235,0.205882,0.000000,8.002400,0.000000,188.002250,201.582005,142.526225,85.848442,87.407631,0.050667
70339149915,70319477917,70339149915,27,25,0.000000,0.000000,1.000000,0.000000,1.000000,0.000000,0.000000,0.037037,0.074074,0.000000,8.000800,0.000000,6.800150,26.637196,27.603719,24.786539,26.307228,0.079979
70359693920,70339909916,70359693920,28,24,0.000000,0.000000,1.000000,0.000000,1.000000,0.000000,0.000000,0.214286,0.107143,0.000000,8.003800,0.000000,35.200600,361.121856,279.977456,74.996952,71.114381,0.105838
70380365917,70360509917,70380365917,29,27,0.000000,0.000000,1.000000,0.000000,1.000000,0.000000,0.000000,0.034483,0.068966,7.997000,285.600300,0.000000,214.002250,277.438140,178.960522,45.385846,62.128780,0.049867
70400629920,70381077920,70400629920,27,27,0.000000,0.000000,1.000000,0.000000,1.000000,0.000000,0.000000,0.037037,0.000000,0.000000,8.000000,0.000000,8.003750,32.159751,33.409086,32.239693,33.790394,0.071714
70420869916,70401389920,70420869916,27,27,0.000000,0.000000,1.000000,0.000000,1.000000,0.000000,0.000000,0.074074,0.000000,0.000000,8.000000,0.000000,8.000000,35.953784,30.436411,37.005989,31.184007,0.077313
70441309920,70421613920,70441309920,28,27,0.000000,0.000000,1.000000,0.000000,1.000000,0.000000,0.000000,0.107143,0.107143,0.000000,267.200200,0.000000,270.400150,339.723961,187.115341,32.800254,34.733006,0.062117
70461829917,70442061921,70461829917,29,28,0.000000,0.000000,1.000000,0.000000,1.000000,0.000000,0.000000,0.000000,0.034483,0.000000,247.998950,0.000000,270.399300,126.927827,107.476357,33.162710,52.102133,0.024800
70482045919,70462565917,70482045919,29,29,0.000000,0.000000,1.000000,0.000000,1.000000,0.000000,0.000000,0.103448,0.000000,0.000000,8.000000,0.000000,8.001600,38.242951,39.582108,38.274440,39.281715,0.058118
70502469920,70482773920,70502469920,28,28,0.000000,0.000000,1.000000,0.000000,1.000000,0.000000,0.000000,0.107143,0.000000,0.000000,287.998600,0.000000,213.599700,117.019391,75.309676,34.906583,45.256971,0.040533
70522789920,70503205916,70522789920,27,27,0.000000,0.000000,1.000000,0.000000,1.000000,0.000000,0.000000,0.000000,0.000000,0.000000,8.000700,0.000000,8.001750,39.453426,44.265214,41.661578,44.206952,0.000000
70542981920,70523613920,70542981920,27,24,0.000000,0.000000,1.000000,0.000000,0.996682,0.000000,0.000000,0.000000,0.074074,0.000000,270.397800,0.000000,269.598450,244.431574,158.342363,52.678721,55.440551,0.000000
70563621921,70543725917,70563621921,28,27,0.000000,0.000000,1.000000,0.000000,1.000000,0.000000,0.000000,0.000000,0.000000,0.000000,8.003000,0.000000,8.003000,30.062666,33.960141,30.504910,37.545363,0.011733
70583845920,70564301921,70583845920,29,28,0.000000,0.000000,1.000000,0.000000,1.000000,0.000000,0.000000,0.000000,0.068966,8.001000,295.999000,0.000000,37.995750,104.519993,72.907204,33.766142,31.069864,0.014130
70604101920,70584557920,70604101920,29,24,0.000000,0.000000,1.000000,0.000000,1.000000,0.000000,0.000000,0.034483,0.206897,0.000000,8.002700,0.000000,198.001100,483.192753,403.349352,34.599679,63.502987,0.057051
70624213918,70604805920,70624213918,29,31,0.000000,0.000000,1.000000,0.000000,1.000000,0.000000,0.000000,0.068966,0.000000,0.000000,152.002000,0.000000,273.999350,192.401970,107.784237,39.761206,83.853822,0.063716
70644397917,70625077920,70644397917,29,25,0.000000,0.000000,1.000000,0.000000,1.000000,0.000000,0.000000,0.034483,0.172414,0.000000,261.602800,0.000000,227.196700,373.523083,363.085808,36.172230,69.286316,0.095404
70664781921,70645029919,70664781921,30,24,0.000000,0.000000,1.000000,0.000000,0.999995,0.000000,0.000000,0.166667,0.266667,0.000000,8.003950,0.000000,231.999000,688.715165,518.487036,118.283686,106.513325,0.122400
70685389920,70665453917,70685389920,26,27,0.000000,0.000000,1.000000,0.000000,1.000000,0.000000,0.000000,0.038462,0.000000,0.000000,6.002250,0.000000,244.801400,185.682287,114.502139,89.890315,93.287462,0.097841
70705781917,70686093920,70705781917,29,21,0.000000,0.000000,1.000000,0.000000,1.000000,0.000000,0.000000,0.034483,0.275862,7.997000,248.001000,7.997000,242.001150,795.962028,569.745104,57.088418,57.248459,0.100000
70726173917,70706701920,70726173917,24,27,0.000000,0.000000,1.000000,0.000000,1.000000,0.000000,0.000000,0.000000,0.083333,0.000000,106.800000,0.000000,336.003000,286.802976,192.829564,45.671563,75.651141,0.000267
70746413916,70727021920,70746413916,24,25,0.000000,0.000000,1.000000,0.000000,1.000000,0.000000,0.000000,0.041667,0.083333,0.000000,30.800150,0.000000,215.999000,229.770693,153.917811,45.029332,56.349278,0.037857
70767005920,70747141920,70767005920,27,25,0.000000,0.000000,1.000000,0.000000,1.000000,0.000000,0.000000,0.000000,0.259259,8.000500,312.398950,3.999500,471.199000,424.138629,283.935909,39.679702,35.866892,0.077600
70787405918,70767693916,70787405918,27,26,0.000000,0.000000,1.000000,0.000000,1.000000,0.000000,0.000000,0.037037,0.000000,0.000000,8.001400,0.000000,8.002750,39.124758,29.887512,32.984942,28.559955,0.098107
70807877920,70788101917,70807877920,27,15,0.000000,0.000000,1.000000,0.000000,1.000000,0.000000,0.000000,0.111111,0.444444,0.000000,92.003200,0.000000,290.798650,975.954547,646.780723,68.333189,61.132587,0.177819
70828037919,70808701921,70828037919,29,20,0.034483,0.034483,0.965517,0.034483,0.987489,0.000000,0.034483,0.103448,0.275862,0.000000,8.001000,0.000000,336.000000,539.816328,375.541315,167.244313,184.778516,0.158624
70848053918,70828485918,70848053918,29,21,0.034483,0.034483,0.965517,0.034483,0.990977,0.000000,0.034483,0.068966,0.241379,0.000000,8.000000,0.000000,8.000000,799.540552,540.258978,121.910444,99.138970,0.112800
70868805920,70848845920,70868805920,25,26,0.000000,0.000000,1.000000,0.000000,1.000000,0.000000,0.000000,0.000000,0.000000,0.000000,8.002000,0.000000,286.800300,138.553631,95.637911,36.699390,69.361617,0.000267
70889581917,70869661921,70889581917,25,24,0.000000,0.000000,1.000000,0.000000,1.000000,0.000000,0.000000,0.000000,0.200000,0.000000,8.002050,0.000000,8.003000,264.440268,173.418297,36.086785,50.389695,0.009597
70909933920,70890445920,70909933920,24,23,0.000000,0.000000,1.000000,0.000000,1.000000,0.000000,0.000000,0.000000,0.000000,0.000000,8.000850,0.000000,8.001900,39.654777,37.708878,39.005044,37.670923,0.000000
70930365920,70910829917,70930365920,25,23,0.000000,0.000000,1.000000,0.000000,1.000000,0.000000,0.000000,0.000000,0.240000,0.000000,8.000000,0.000000,8.000000,187.786038,129.111601,29.794450,64.487555,0.044000
70950909920,70930997920,70950909920,31,23,0.000000,0.000000,1.000000,0.000000,1.000000,0.000000,0.000000,0.096774,0.258065,0.000000,188.003600,0.000000,207.604000,620.795135,491.863210,24.812589,31.617077,0.052786
70971317920,70951661917,70971317920,28,28,0.000000,0.000000,1.000000,0.000000,1.000000,0.000000,0.000000,0.000000,0.000000,0.000000,8.001000,0.000000,8.002400,22.736376,40.671472,22.519189,40.852719,0.017862
70991749917,70971981920,70991749917,28,29,0.000000,0.000000,1.000000,0.000000,1.000000,0.000000,0.000000,0.000000,0.071429,7.997000,281.997500,3.998500,459.193600,223.873108,173.440963,29.225700,47.761855,0.022127
71011933919,70992541920,71011933919,26,25,0.000000,0.000000,1.000000,0.000000,1.000000,0.000000,0.000000,0.000000,0.000000,0.000000,8.003000,0.000000,8.003000,25.735660,29.321241,25.246518,30.065273,0.000000
71032061920,71012685920,71032061920,28,27,0.000000,0.000000,1.000000,0.000000,1.000000,0.000000,0.000000,0.000000,0.071429,3.998500,259.998500,0.000000,283.202000,168.592826,109.379107,51.702909,51.599013,0.028267
71052701920,71033357917,71052701920,30,28,0.000000,0.000000,1.000000,0.000000,1.000000,0.000000,0.000000,0.000000,0.066667,0.000000,153.600700,0.000000,271.200000,104.884446,102.025297,30.500005,57.823842,0.053852
71073221917,71053469920,71073221917,27,28,0.000000,0.000000,1.000000,0.000000,1.000000,0.000000,0.000000,0.037037,0.111111,0.000000,281.602150,0.000000,332.000200,300.840412,192.170091,40.222804,54.281076,0.055185
71093709920,71074173917,71093709920,26,23,0.000000,0.000000,1.000000,0.000000,1.000000,0.000000,0.000000,0.038462,0.076923,0.000000,8.003550,0.000000,8.004000,463.959209,314.462940,34.756343,54.783136,0.094375
71113941921,71094453920,71113941921,28,28,0.000000,0.000000,1.000000,0.000000,1.000000,0.000000,0.000000,0.035714,0.000000,0.000000,8.004000,0.000000,217.599700,125.728903,82.821448,41.094653,34.540700,0.071733
71134661920,71115317921,71134661920,29,25,0.000000,0.000000,1.000000,0.000000,1.000000,0.000000,0.000000,0.034483,0.275862,0.000000,264.001000,0.000000,272.401100,629.268476,429.879750,47.302989,38.779083,0.073867
71154669917,71135397917,71154669917,27,25,0.000000,0.000000,1.000000,0.000000,1.000000,0.000000,0.000000,0.037037,0.074074,0.000000,8.003000,0.000000,8.004700,450.448642,314.348093,31.230970,30.353190,0.083978
71174685917,71155533916,71174685917,27,26,0.000000,0.000000,1.000000,0.000000,0.999753,0.000000,0.000000,0.074074,0.111111,0.000000,304.004400,0.000000,333.603700,514.455656,302.393252,103.420676,110.178150,0.057333
71195013917,71175445921,71195013917,27,26,0.000000,0.000000,1.000000,0.000000,1.000000,0.000000,0.000000,0.037037,0.111111,0.000000,254.797450,0.000000,270.401500,300.119930,196.292156,29.891934,32.470835,0.066382
71215685920,71195789920,71215685920,28,23,0.000000,0.000000,1.000000,0.000000,1.000000,0.000000,0.000000,0.000000,0.285714,0.000000,19.603050,0.000000,31.203100,1141.295714,769.714488,44.763144,57.232152,0.041589
71235725920,71216565920,71235725920,24,26,0.000000,0.000000,1.000000,0.000000,1.000000,0.000000,0.000000,0.000000,0.125000,0.000000,303.999000,0.000000,327.601200,383.850653,240.510500,64.045240,123.801606,0.000267
71256061917,71236573920,71256061917,26,25,0.000000,0.000000,1.000000,0.000000,1.000000,0.000000,0.000000,0.038462,0.038462,0.000000,8.000800,0.000000,8.002700,216.007815,144.790690,32.208063,53.170345,0.019995
71276237920,71256821920,71276237920,28,23,0.000000,0.000000,1.000000,0.000000,1.000000,0.000000,0.000000,0.071429,0.178571,8.004000,215.200000,0.000000,359.598050,455.778226,329.830343,33.429126,63.239120,0.049054
71296381917,71276925920,71296381917,31,28,0.000000,0.000000,1.000000,0.000000,0.999717,0.000000,0.000000,0.161290,0.096774,191.997000,223.599650,-184.001500,299.195600,161.682837,105.137307,85.182883,83.295571,0.048000
71316853920,71297077920,71316853920,30,28,0.066667,0.066667,0.933333,0.066667,0.987873,0.000000,0.066667,0.100000,0.166667,191.998000,220.800800,-184.003000,358.801400,233.421829,137.824231,34.409459,25.267160,0.065583
71337573917,71318269920,71337573917,29,28,0.000000,0.000000,1.000000,0.000000,1.000000,0.000000,0.000000,0.034483,0.034483,192.000000,213.203650,-191.997500,389.596300,135.063420,111.808855,29.293832,49.557635,0.020794
71358077917,71338317920,71358077917,28,28,0.000000,0.000000,1.000000,0.000000,1.000000,0.000000,0.000000,0.000000,0.142857,196.000500,293.599550,-191.997000,428.800100,235.902735,150.861945,23.948496,24.037911,0.001866
71378677916,71358797918,71378677916,27,27,0.000000,0.000000,1.000000,0.000000,1.000000,0.000000,0.000000,0.000000,0.074074,199.998000,292.800000,-192.003000,494.805100,238.066149,157.060778,33.677387,35.646565,0.005332
71399373917,71379405920,71399373917,28,28,0.000000,0.000000,1.000000,0.000000,1.000000,0.000000,0.000000,0.000000,0.035714,207.998000,301.598300,-191.998000,515.999750,175.256471,117.113809,28.586732,25.811733,0.004800
71419621920,71400069918,71419621920,27,28,0.000000,0.000000,1.000000,0.000000,1.000000,0.000000,0.000000,0.000000,0.111111,192.001500,300.399000,-192.000000,447.196100,278.363541,175.378928,26.094904,45.084624,0.006133
71439997921,71420325920,71439997921,30,28,0.000000,0.000000,1.000000,0.000000,1.000000,0.000000,0.000000,0.033333,0.066667,199.999500,229.199300,-199.997500,318.394800,190.847991,114.595478,25.388322,34.367848,0.019461
71460277917,71440701921,71460277917,30,28,0.000000,0.000000,1.000000,0.000000,1.000000,0.000000,0.000000,0.200000,0.100000,192.001000,221.598300,-192.000000,373.997500,231.049028,135.970202,22.977169,33.426165,0.067733
71480309918,71460949920,71480309918,31,27,0.000000,0.000000,1.000000,0.000000,1.000000,0.000000,0.000000,0.129032,0.161290,208.001000,282.000000,-171.999500,443.199000,249.563409,168.832852,29.073453,32.501671,0.057585
71500813918,71481389917,71500813918,27,24,0.037037,0.037037,0.962963,0.037037,0.990631,0.000000,0.037037,0.074074,0.185185,143.997000,278.800000,0.000000,431.997000,479.334703,333.484344,76.449504,91.552085,0.068248
71521269920,71501629920,71521269920,27,26,0.000000,0.000000,1.000000,0.000000,0.999759,0.000000,0.000000,0.074074,0.148148,8.000000,312.000000,0.000000,538.396300,266.652739,159.916305,41.785249,33.422892,0.078912
71541429918,71522061917,71541429918,30,26,0.000000,0.000000,1.000000,0.000000,1.000000,0.000000,0.000000,0.166667,0.133333,0.000000,8.002500,0.000000,207.998000,306.875499,206.442426,50.798268,55.409602,0.107400
71562197917,71542669920,71562197917,24,26,0.000000,0.000000,1.000000,0.000000,1.000000,0.000000,0.000000,0.125000,0.041667,0.000000,255.202400,0.000000,271.600150,313.958989,209.532446,57.308886,128.844885,0.117067
71582853920,71563077920,71582853920,26,27,0.000000,0.000000,1.000000,0.000000,1.000000,0.000000,0.000000,0.000000,0.038462,0.000000,231.997600,0.000000,301.599400,308.786571,187.704718,40.859671,51.862716,0.145333
71603365919,71583517920,71603365919,27,24,0.000000,0.000000,1.000000,0.000000,1.000000,0.000000,0.000000,0.222222,0.111111,0.000000,8.000000,0.000000,8.000000,689.571185,481.232686,63.133895,40.170493,0.190933
71623957920,71604077916,71623957920,29,25,0.000000,0.000000,1.000000,0.000000,0.998133,0.000000,0.000000,0.275862,0.137931,0.000000,8.004000,0.000000,266.402300,483.851752,371.424851,104.953182,97.144581,0.200746
71644589919,71624661918,71644589919,26,22,0.000000,0.000000,1.000000,0.000000,1.000000,0.000000,0.000000,0.076923,0.115385,0.000000,8.001800,0.000000,8.002000,549.354375,367.230918,46.762214,67.087244,0.153867
71664789920,71645381921,71664789920,26,26,0.000000,0.000000,1.000000,0.000000,1.000000,0.000000,0.000000,0.115385,0.000000,0.000000,8.003500,0.000000,8.004000,34.487573,25.662554,31.537988,24.601220,0.161290
71685101920,71665581920,71685101920,27,23,0.000000,0.000000,1.000000,0.000000,1.000000,0.000000,0.000000,0.074074,0.111111,0.000000,225.600300,0.000000,29.598400,471.460563,328.523707,27.247758,39.626645,0.137830
71705357920,71685765918,71705357920,28,22,0.000000,0.000000,1.000000,0.000000,1.000000,0.000000,0.000000,0.178571,0.214286,0.000000,8.003000,0.000000,8.003000,809.105217,529.824058,19.968052,35.487750,0.154933
71725877920,71706117918,71725877920,27,27,0.000000,0.000000,1.000000,0.000000,1.000000,0.000000,0.000000,0.074074,0.000000,0.000000,8.002100,0.000000,8.002250,29.761581,23.731727,28.710650,22.964028,0.156000
71746437921,71726645918,71746437921,27,23,0.000000,0.000000,1.000000,0.000000,1.000000,0.000000,0.000000,0.037037,0.148148,0.000000,8.002000,0.000000,198.000100,537.901124,359.809338,24.735995,47.339056,0.104000
71766645918,71747157918,71766645918,26,26,0.000000,0.000000,1.000000,0.000000,1.000000,0.000000,0.000000,0.076923,0.000000,0.000000,8.002000,0.000000,8.002800,25.870962,27.808335,25.818366,27.526654,0.084511
