host_read_start_ns,host_read_end_ns,read_duration_ms,bytes_read,decoded_message_count,sample_count,first_sample_seq,last_sample_seq,first_sample_t_us,last_sample_t_us,serial_in_waiting,protocol_ok_frames,crc_errors,format_errors,resync_count,sample_seq_gaps
67541750000000,67542281000000,531.0,4096,66,64,8443894,8443957,67551709917,67552213920,52,66,0,1,1,0
67542281000000,67542812000000,531.0,4096,67,67,8443958,8444024,67552221919,67552749920,55,133,0,1,1,0
67542812000000,67543328000000,516.0,4096,66,65,8444025,8444089,67552757920,67553269917,42,199,0,1,1,0
67543343000000,67543875000000,532.0,4096,68,67,8444090,8444156,67553277920,67553805921,44,267,0,1,1,0
67543875000000,67544390000000,515.0,4096,67,66,8444157,8444222,67553813920,67554333918,74,334,0,1,1,0
67544406000000,67544937000000,531.0,4096,67,67,8444223,8444289,67554341921,67554869920,39,401,0,1,1,0
67544937000000,67545453000000,516.0,4096,68,66,8444290,8444355,67554877918,67555397916,77,469,0,1,1,0
67545468000000,67545984000000,516.0,4096,67,66,8444356,8444421,67555405918,67555925920,51,536,0,1,1,0
67545984000000,67546515000000,531.0,4096,66,66,8444422,8444487,67555933920,67556453920,38,602,0,1,1,0
67546515000000,67547046000000,531.0,4096,68,67,8444488,8444554,67556461921,67556989921,80,670,0,1,1,0
67547062000000,67547578000000,516.0,4096,67,66,8444555,8444620,67556997917,67557517917,50,737,0,1,1,0
67547578000000,67548109000000,531.0,4096,67,66,8444621,8444686,67557525920,67558045920,32,804,0,1,1,0
67548109000000,67548640000000,531.0,4096,66,66,8444687,8444752,67558053921,67558573920,48,870,0,1,1,0
67548640000000,67549156000000,516.0,4096,66,65,8444753,8444817,67558581920,67559093918,149,936,0,1,1,0
67549171000000,67549671000000,500.0,4096,66,65,8444818,8444882,67559101919,67559613920,103,1002,0,1,1,0
67549687000000,67550187000000,500.0,4096,66,64,8444883,8444946,67559621916,67560125917,102,1068,0,1,1,0
67550203000000,67550718000000,515.0,4096,66,66,8444947,8445012,67560133916,67560653920,143,1134,0,1,1,0
67550734000000,67551234000000,500.0,4096,66,65,8445013,8445077,67560661920,67561173917,132,1200,0,1,1,0
67551250000000,67551765000000,515.0,4096,66,65,8445078,8445142,67561181920,67561693920,178,1266,0,1,1,0
67551781000000,67552281000000,500.0,4096,66,65,8445143,8445207,67561701920,67562213916,122,1332,0,1,1,0
67552296000000,67552796000000,500.0,4096,66,66,8445208,8445273,67562221920,67562741918,231,1398,0,1,1,0
67552828000000,67553328000000,500.0,4096,66,65,8445274,8445338,67562749917,67563261917,198,1464,0,1,1,0
67553359000000,67553859000000,500.0,4096,68,67,8445339,8445405,67563269920,67563797920,126,1532,0,1,1,0
67553875000000,67554390000000,515.0,4096,67,66,8445406,8445471,67563805918,67564325917,163,1599,0,1,1,0
67554406000000,67554921000000,515.0,4096,67,66,8445472,8445537,67564333917,67564853918,111,1666,0,1,1,0
67554937000000,67555453000000,516.0,4096,68,67,8445538,8445604,67564861917,67565389916,155,1734,0,1,1,0
67555468000000,67555984000000,516.0,4096,67,66,8445605,8445670,67565397920,67565917917,140,1801,0,1,1,0
67556000000000,67556515000000,515.0,4096,67,66,8445671,8445736,67565925920,67566445920,117,1868,0,1,1,0
67556531000000,67557031000000,500.0,4096,67,66,8445737,8445802,67566453918,67566973918,222,1935,0,1,1,0
67557062000000,67557562000000,500.0,4096,67,66,8445803,8445868,67566981920,67567501920,154,2002,0,1,1,0
67557578000000,67558093000000,515.0,4096,66,66,8445869,8445934,67567509920,67568029920,194,2068,0,1,1,0
67558109000000,67558625000000,516.0,4096,67,66,8445935,8446000,67568037917,67568557917,175,2135,0,1,1,0
67558640000000,67559156000000,516.0,4096,67,66,8446001,8446066,67568565917,67569085920,137,2202,0,1,1,0
67559171000000,67559687000000,516.0,4096,68,67,8446067,8446133,67569093917,67569621916,203,2270,0,1,1,0
67559703000000,67560203000000,500.0,4096,68,66,8446134,8446199,67569629920,67570149917,170,2338,0,1,1,0
67560234000000,67560750000000,516.0,4096,67,67,8446200,8446266,67570157917,67570685919,244,2405,0,1,1,0
67560781000000,67561281000000,500.0,4096,67,66,8446267,8446332,67570693917,67571213918,235,2472,0,1,1,0
67561312000000,67561812000000,500.0,4096,67,66,8446333,8446398,67571221920,67571741917,150,2539,0,1,1,0
67561828000000,67562328000000,500.0,4096,68,66,8446399,8446464,67571749918,67572269920,201,2607,0,1,1,0
67562359000000,67562859000000,500.0,4096,67,66,8446465,8446530,67572277916,67572797920,242,2674,0,1,1,0
67562890000000,67563390000000,500.0,4096,67,66,8446531,8446596,67572805920,67573325916,212,2741,0,1,1,0
67563421000000,67563921000000,500.0,4096,67,67,8446597,8446663,67573333917,67573861920,158,2808,0,1,1,0
67563953000000,67564453000000,500.0,4096,66,65,8446664,8446728,67573869920,67574381917,154,2874,0,1,1,0
67564468000000,67564953000000,485.0,4096,66,65,8446729,8446793,67574389920,67574901916,195,2940,0,1,1,0
67564984000000,67565484000000,500.0,4096,67,65,8446794,8446858,67574909915,67575421920,151,3007,0,1,1,0
67565500000000,67566000000000,500.0,4096,65,64,8446859,8446922,67575429917,67575933918,322,3072,0,1,1,0
67566046000000,67566531000000,485.0,4096,67,67,8446923,8446989,67575941921,67576469920,247,3139,0,1,1,0
67566562000000,67567046000000,484.0,4096,66,65,8446990,8447054,67576477921,67576989918,154,3205,0,1,1,0
67567062000000,67567578000000,516.0,4096,66,65,8447055,8447119,67576997920,67577509917,172,3271,0,1,1,0
67567593000000,67568093000000,500.0,4096,67,66,8447120,8447185,67577517920,67578037920,146,3338,0,1,1,0
67568125000000,67568625000000,500.0,4096,66,65,8447186,8447250,67578045921,67578557920,174,3404,0,1,1,0
67568640000000,67569140000000,500.0,4096,65,64,8447251,8447314,67578565920,67579069920,157,3469,0,1,1,0
67569156000000,67569671000000,515.0,4096,67,67,8447315,8447381,67579077920,67579605920,163,3536,0,1,1,0
67569687000000,67570187000000,500.0,4096,66,64,8447382,8447445,67579613918,67580117921,165,3602,0,1,1,0
67570203000000,67570703000000,500.0,4096,67,66,8447446,8447511,67580125916,67580645920,410,3669,0,1,1,0
67570765000000,67571234000000,469.0,4096,66,65,8447512,8447576,67580653920,67581165920,180,3735,0,1,1,0
67571250000000,67571750000000,500.0,4096,66,65,8447577,8447641,67581173920,67581685921,150,3801,0,1,1,0
67571765000000,67572265000000,500.0,4096,65,65,8447642,8447706,67581693920,67582205916,200,3866,0,1,1,0
67572296000000,67572796000000,500.0,4096,67,66,8447707,8447772,67582213920,67582733917,189,3933,0,1,1,0
67572812000000,67573328000000,516.0,4096,67,66,8447773,8447838,67582741921,67583261920,243,4000,0,1,1,0
67573359000000,67573843000000,484.0,4096,67,66,8447839,8447904,67583269920,67583789920,156,4067,0,1,1,0
67573875000000,67574390000000,515.0,4096,67,67,8447905,8447971,67583797920,67584325918,237,4134,0,1,1,0
67574421000000,67574921000000,500.0,4096,67,66,8447972,8448037,67584333917,67584853920,166,4201,0,1,1,0
67574937000000,67575437000000,500.0,4096,68,66,8448038,8448103,67584861916,67585381917,135,4269,0,1,1,0
67575453000000,67575968000000,515.0,4096,67,66,8448104,8448169,67585389920,67585909920,169,4336,0,1,1,0
67576000000000,67576515000000,515.0,4096,67,67,8448170,8448236,67585917920,67586445921,217,4403,0,1,1,0
67576531000000,67577046000000,515.0,4096,68,67,8448237,8448303,67586453920,67586981920,144,4471,0,1,1,0
67577062000000,67577578000000,516.0,4096,67,66,8448304,8448369,67586989921,67587509920,175,4538,0,1,1,0
67577593000000,67578093000000,500.0,4096,67,66,8448370,8448435,67587517920,67588037917,128,4605,0,1,1,0
67578125000000,67578640000000,515.0,4096,67,67,8448436,8448502,67588045920,67588573921,184,4672,0,1,1,0
67578656000000,67579171000000,515.0,4096,67,66,8448503,8448568,67588581916,67589101921,183,4739,0,1,1,0
67579187000000,67579687000000,500.0,4096,67,66,8448569,8448634,67589109917,67589629920,146,4806,0,1,1,0
67579718000000,67580218000000,500.0,4096,67,65,8448635,8448699,67589637921,67590149917,195,4873,0,1,1,0
67580234000000,67580750000000,516.0,4096,67,67,8448700,8448766,67590157921,67590685920,150,4940,0,1,1,0
67580765000000,67581281000000,516.0,4096,67,66,8448767,8448832,67590693920,67591213920,178,5007,0,1,1,0
67581296000000,67581812000000,516.0,4096,67,66,8448833,8448898,67591221921,67591741916,112,5074,0,1,1,0
67581828000000,67582328000000,500.0,4096,68,66,8448899,8448964,67591749917,67592269918,165,5142,0,1,1,0
67582359000000,67582859000000,500.0,4096,67,67,8448965,8449031,67592277920,67592805920,159,5209,0,1,1,0
67582890000000,67583390000000,500.0,4096,66,65,8449032,8449096,67592813921,67593325916,128,5275,0,1,1,0
67583406000000,67583921000000,515.0,4096,68,67,8449097,8449163,67593333918,67593861916,174,5343,0,1,1,0
67583937000000,67584453000000,516.0,4096,67,66,8449164,8449229,67593869920,67594389917,105,5410,0,1,1,0
67584468000000,67584984000000,516.0,4096,67,66,8449230,8449295,67594397920,67594917917,156,5477,0,1,1,0
67585000000000,67585500000000,500.0,4096,67,66,8449296,8449361,67594925918,67595445918,250,5544,0,1,1,0
67585546000000,67586046000000,500.0,4096,67,66,8449362,8449427,67595453920,67595973920,216,5611,0,1,1,0
67586062000000,67586562000000,500.0,4096,67,66,8449428,8449493,67595981920,67596501918,219,5678,0,1,1,0
67586593000000,67587093000000,500.0,4096,67,67,8449494,8449560,67596509917,67597037921,193,5745,0,1,1,0
67587125000000,67587625000000,500.0,4096,67,66,8449561,8449626,67597045916,67597565921,138,5812,0,1,1,0
67587656000000,67588156000000,500.0,4096,68,67,8449627,8449693,67597573917,67598101920,164,5880,0,1,1,0
67588187000000,67588687000000,500.0,4096,67,66,8449694,8449759,67598109920,67598629918,125,5947,0,1,1,0
67588703000000,67589234000000,531.0,4096,67,67,8449760,8449826,67598637920,67599165920,224,6014,0,1,1,0
67589250000000,67589750000000,500.0,4096,67,66,8449827,8449892,67599173920,67599693918,158,6081,0,1,1,0
67589781000000,67590281000000,500.0,4096,68,66,8449893,8449958,67599701920,67600221921,140,6149,0,1,1,0
67590296000000,67590812000000,516.0,4096,67,66,8449959,8450024,67600229920,67600749917,582,6216,0,1,1,0
67590890000000,67591343000000,453.0,4096,66,66,8450025,8450090,67600757920,67601277921,302,6282,0,1,1,0
67591375000000,67591875000000,500.0,4096,67,66,8450091,8450156,67601285917,67601805920,230,6349,0,1,1,0
67591906000000,67592406000000,500.0,4096,68,67,8450157,8450223,67601813920,67602341920,192,6417,0,1,1,0
67592437000000,67592937000000,500.0,4096,67,66,8450224,8450289,67602349917,67602869920,125,6484,0,1,1,0
67592953000000,67593468000000,515.0,4096,67,67,8450290,8450356,67602877920,67603405921,166,6551,0,1,1,0
67593500000000,67594000000000,500.0,4096,68,67,8450357,8450423,67603413920,67603941917,165,6619,0,1,1,0
67594015000000,67594531000000,516.0,4096,66,65,8450424,8450488,67603949918,67604461917,266,6685,0,1,1,0
67594562000000,67595046000000,484.0,4096,68,66,8450489,8450554,67604469920,67604989920,162,6753,0,1,1,0
67595078000000,67595578000000,500.0,4096,67,66,8450555,8450620,67604997917,67605517918,97,6820,0,1,1,0
67595593000000,67596125000000,532.0,4096,67,67,8450621,8450687,67605525920,67606053918,183,6887,0,1,1,0
67596140000000,67596640000000,500.0,4096,67,66,8450688,8450753,67606061920,67606581921,125,6954,0,1,1,0
67596671000000,67597171000000,500.0,4096,68,67,8450754,8450820,67606589920,67607117920,213,7022,0,1,1,0
67597203000000,67597703000000,500.0,4096,67,66,8450821,8450886,67607125918,67607645917,206,7089,0,1,1,0
67597734000000,67598234000000,500.0,4096,66,66,8450887,8450952,67607653920,67608173917,135,7155,0,1,1,0
67598250000000,67598765000000,515.0,4096,67,66,8450953,8451018,67608181920,67608701921,172,7222,0,1,1,0
67598781000000,67599296000000,515.0,4096,67,66,8451019,8451084,67608709920,67609229921,199,7289,0,1,1,0
67599328000000,67599828000000,500.0,4096,67,66,8451085,8451150,67609237920,67609757917,131,7356,0,1,1,0
67599843000000,67600359000000,516.0,4096,68,67,8451151,8451217,67609765920,67610293917,169,7424,0,1,1,0
67600375000000,67600890000000,515.0,4096,67,66,8451218,8451283,67610301921,67610821918,141,7491,0,1,1,0
67600906000000,67601406000000,500.0,4096,67,66,8451284,8451349,67610829920,67611349920,230,7558,0,1,1,0
67601437000000,67601953000000,516.0,4096,67,67,8451350,8451416,67611357920,67611885920,197,7625,0,1,1,0
67601968000000,67602468000000,500.0,4096,68,66,8451417,8451482,67611893920,67612413921,128,7693,0,1,1,0
67602484000000,67603000000000,516.0,4096,67,66,8451483,8451548,67612421920,67612941916,150,7760,0,1,1,0
67603031000000,67603531000000,500.0,4096,67,66,8451549,8451614,67612949920,67613469920,199,7827,0,1,1,0
67603562000000,67604062000000,500.0,4096,66,66,8451615,8451680,67613477920,67613997920,211,7893,0,1,1,0
67604093000000,67604593000000,500.0,4096,67,66,8451681,8451746,67614005920,67614525920,195,7960,0,1,1,0
67604609000000,67605109000000,500.0,4096,67,65,8451747,8451811,67614533917,67615045920,133,8027,0,1,1,0
67605125000000,67605640000000,515.0,4096,67,66,8451812,8451877,67615053920,67615573919,213,8094,0,1,1,0
67605656000000,67606171000000,515.0,4096,67,67,8451878,8451944,67615581920,67616109920,121,8161,0,1,1,0
67606187000000,67606703000000,516.0,4096,67,66,8451945,8452010,67616117920,67616637918,168,8228,0,1,1,0
67606718000000,67607234000000,516.0,4096,67,66,8452011,8452076,67616645920,67617165920,214,8295,0,1,1,0
67607250000000,67607765000000,515.0,4096,67,67,8452077,8452143,67617173921,67617701920,178,8362,0,1,1,0
67607781000000,67608296000000,515.0,4096,67,66,8452144,8452209,67617709920,67618229917,167,8429,0,1,1,0
67608312000000,67608812000000,500.0,4096,67,66,8452210,8452275,67618237920,67618757921,140,8496,0,1,1,0
67608828000000,67609343000000,515.0,4096,67,66,8452276,8452341,67618765921,67619285918,245,8563,0,1,1,0
67609375000000,67609875000000,500.0,4096,67,67,8452342,8452408,67619293917,67619821921,208,8630,0,1,1,0
67609906000000,67610406000000,500.0,4096,67,65,8452409,8452473,67619829921,67620341920,131,8697,0,1,1,0
67610421000000,67610937000000,516.0,4096,67,66,8452474,8452539,67620349920,67620869917,167,8764,0,1,1,0
67610953000000,67611468000000,515.0,4096,67,66,8452540,8452605,67620877921,67621397920,688,8831,0,1,1,0
67611546000000,67612000000000,454.0,4096,68,67,8452606,8452672,67621405917,67621933917,199,8899,0,1,1,0
67612015000000,67612531000000,516.0,4096,66,66,8452673,8452738,67621941921,67622461920,250,8965,0,1,1,0
67612562000000,67613046000000,484.0,4096,67,66,8452739,8452804,67622469918,67622989920,129,9032,0,1,1,0
67613078000000,67613593000000,515.0,4096,68,67,8452805,8452871,67622997920,67623525917,201,9100,0,1,1,0
67613609000000,67614109000000,500.0,4096,67,66,8452872,8452937,67623533918,67624053917,128,9167,0,1,1,0
67614125000000,67614640000000,515.0,4096,66,66,8452938,8453003,67624061920,67624581917,202,9233,0,1,1,0
67614671000000,67615171000000,500.0,4096,67,65,8453004,8453068,67624589917,67625101917,142,9300,0,1,1,0
67615187000000,67615687000000,500.0,4096,67,66,8453069,8453134,67625109917,67625629918,189,9367,0,1,1,0
67615718000000,67616218000000,500.0,4096,67,66,8453135,8453200,67625637921,67626157920,183,9434,0,1,1,0
67616250000000,67616765000000,515.0,4096,67,67,8453201,8453267,67626165916,67626693921,137,9501,0,1,1,0
67616781000000,67617281000000,500.0,4096,67,66,8453268,8453333,67626701920,67627221917,263,9568,0,1,1,0
67617312000000,67617812000000,500.0,4096,68,67,8453334,8453400,67627229918,67627757920,144,9636,0,1,1,0
67617843000000,67618343000000,500.0,4096,67,66,8453401,8453466,67627765920,67628285918,194,9703,0,1,1,0
67618375000000,67618875000000,500.0,4096,66,66,8453467,8453532,67628293919,67628813920,197,9769,0,1,1,0
67618906000000,67619406000000,500.0,4096,67,66,8453533,8453598,67628821921,67629341916,148,9836,0,1,1,0
67619421000000,67619937000000,516.0,4096,67,66,8453599,8453664,67629349921,67629869920,253,9903,0,1,1,0
67619968000000,67620453000000,485.0,4096,68,66,8453665,8453730,67629877920,67630397920,169,9971,0,1,1,0
67620484000000,67621000000000,516.0,4096,67,67,8453731,8453797,67630405920,67630933920,201,10038,0,1,1,0
67621015000000,67621515000000,500.0,4096,66,65,8453798,8453862,67630941918,67631453919,209,10104,0,1,1,0
67621531000000,67622031000000,500.0,4096,65,64,8453863,8453926,67631461921,67631965918,350,10169,0,1,1,0
67622078000000,67622546000000,468.0,4096,67,65,8453927,8453991,67631973920,67632485920,277,10236,0,1,1,0
67622578000000,67623078000000,500.0,4096,66,66,8453992,8454057,67632493920,67633013921,152,10302,0,1,1,0
67623093000000,67623593000000,500.0,4096,65,64,8454058,8454121,67633021921,67633525920,229,10367,0,1,1,0
67623625000000,67624109000000,484.0,4096,66,65,8454122,8454186,67633533916,67634045921,159,10433,0,1,1,0
67624125000000,67624625000000,500.0,4096,66,65,8454187,8454251,67634053920,67634565917,196,10499,0,1,1,0
67624656000000,67625140000000,484.0,4096,66,65,8454252,8454316,67634573917,67635085920,201,10565,0,1,1,0
67625171000000,67625671000000,500.0,4096,66,65,8454317,8454381,67635093921,67635605920,125,10631,0,1,1,0
67625687000000,67626187000000,500.0,4096,66,65,8454382,8454446,67635613918,67636125921,192,10697,0,1,1,0
67626218000000,67626718000000,500.0,4096,67,67,8454447,8454513,67636133917,67636661920,180,10764,0,1,1,0
67626734000000,67627250000000,516.0,4096,67,66,8454514,8454579,67636669920,67637189920,207,10831,0,1,1,0
67627281000000,67627781000000,500.0,4096,66,65,8454580,8454644,67637197918,67637709920,242,10897,0,1,1,0
67627796000000,67628296000000,500.0,4096,67,66,8454645,8454710,67637717920,67638237918,147,10964,0,1,1,0
67628312000000,67628828000000,516.0,4096,66,65,8454711,8454775,67638245920,67638757920,329,11030,0,1,1,0
67628859000000,67629359000000,500.0,4096,67,67,8454776,8454842,67638765918,67639293921,231,11097,0,1,1,0
67629390000000,67629875000000,485.0,4096,67,66,8454843,8454908,67639301920,67639821920,156,11164,0,1,1,0
67629906000000,67630406000000,500.0,4096,67,65,8454909,8454973,67639829920,67640341920,273,11231,0,1,1,0
67630437000000,67630937000000,500.0,4096,67,66,8454974,8455039,67640349920,67640869920,127,11298,0,1,1,0
67630953000000,67631468000000,515.0,4096,67,66,8455040,8455105,67640877921,67641397920,202,11365,0,1,1,0
67631484000000,67632000000000,516.0,4096,67,67,8455106,8455172,67641405920,67641933916,1808,11432,0,1,1,0
67632218000000,67632515000000,297.0,4096,66,65,8455173,8455237,67641941919,67642453920,269,11498,0,1,1,0
67632546000000,67633046000000,500.0,4096,67,66,8455238,8455303,67642461920,67642981920,191,11565,0,1,1,0
67633062000000,67633562000000,500.0,4096,66,65,8455304,8455368,67642989918,67643501920,600,11631,0,1,1,0
67633640000000,67634093000000,453.0,4096,66,66,8455369,8455434,67643509920,67644029920,283,11697,0,1,1,0
67634125000000,67634609000000,484.0,4096,66,65,8455435,8455499,67644037920,67644549920,145,11763,0,1,1,0
67634640000000,67635125000000,485.0,4096,67,65,8455500,8455564,67644557921,67645069921,212,11830,0,1,1,0
67635156000000,67635656000000,500.0,4096,66,65,8455565,8455629,67645077917,67645589921,144,11896,0,1,1,0
67635671000000,67636171000000,500.0,4096,66,66,8455630,8455695,67645597921,67646117920,287,11962,0,1,1,0
67636203000000,67636703000000,500.0,4096,66,65,8455696,8455760,67646125920,67646637920,302,12028,0,1,1,0
67636734000000,67637218000000,484.0,4096,66,65,8455761,8455825,67646645920,67647157921,303,12094,0,1,1,0
67637265000000,67637750000000,485.0,4096,66,65,8455826,8455890,67647165921,67647677920,146,12160,0,1,1,0
67637765000000,67638265000000,500.0,4096,66,65,8455891,8455955,67647685921,67648197920,273,12226,0,1,1,0
67638296000000,67638781000000,485.0,4096,65,65,8455956,8456020,67648205920,67648717920,206,12291,0,1,1,0
67638812000000,67639312000000,500.0,4096,67,66,8456021,8456086,67648725917,67649245921,226,12358,0,1,1,0
67639343000000,67639828000000,485.0,4096,66,65,8456087,8456151,67649253920,67649765921,233,12424,0,1,1,0
67639859000000,67640359000000,500.0,4096,68,66,8456152,8456217,67649773920,67650293920,243,12492,0,1,1,0
67640390000000,67640875000000,485.0,4096,66,65,8456218,8456282,67650301917,67650813920,208,12558,0,1,1,0
67640906000000,67641406000000,500.0,4096,66,66,8456283,8456348,67650821919,67651341920,197,12624,0,1,1,0
67641437000000,67641937000000,500.0,4096,67,66,8456349,8456414,67651349921,67651869920,232,12691,0,1,1,0
67641968000000,67642453000000,485.0,4096,67,65,8456415,8456479,67651877916,67652389920,222,12758,0,1,1,0
67642484000000,67642984000000,500.0,4096,67,66,8456480,8456545,67652397918,67652917917,279,12825,0,1,1,0
67643015000000,67643500000000,485.0,4096,65,65,8456546,8456610,67652925920,67653437916,167,12890,0,1,1,0
67643531000000,67644015000000,484.0,4096,66,65,8456611,8456675,67653445921,67653957920,129,12956,0,1,1,0
67644031000000,67644531000000,500.0,4096,65,64,8456676,8456739,67653965917,67654469920,349,13021,0,1,1,0
67644578000000,67645062000000,484.0,4096,66,65,8456740,8456804,67654477920,67654989916,226,13087,0,1,1,0
67645078000000,67645578000000,500.0,4096,66,65,8456805,8456869,67654997920,67655509916,196,13153,0,1,1,0
67645593000000,67646093000000,500.0,4096,66,65,8456870,8456934,67655517917,67656029920,145,13219,0,1,1,0
67646109000000,67646609000000,500.0,4096,66,65,8456935,8456999,67656037920,67656549920,283,13285,0,1,1,0
67646640000000,67647140000000,500.0,4096,65,65,8457000,8457064,67656557920,67657069917,249,13350,0,1,1,0
67647156000000,67647656000000,500.0,4096,67,66,8457065,8457130,67657077921,67657597918,130,13417,0,1,1,0
67647671000000,67648187000000,516.0,4096,67,66,8457131,8457196,67657605918,67658125916,188,13484,0,1,1,0
67648218000000,67648718000000,500.0,4096,67,67,8457197,8457263,67658133920,67658661920,153,13551,0,1,1,0
67648734000000,67649250000000,516.0,4096,66,65,8457264,8457328,67658669918,67659181921,211,13617,0,1,1,0
67649265000000,67649765000000,500.0,4096,67,66,8457329,8457394,67659189920,67659709917,190,13684,0,1,1,0
67649796000000,67650296000000,500.0,4096,67,65,8457395,8457459,67659717918,67660229918,157,13751,0,1,1,0
67650312000000,67650828000000,516.0,4096,67,67,8457460,8457526,67660237916,67660765920,229,13818,0,1,1,0
67650859000000,67651359000000,500.0,4096,67,66,8457527,8457592,67660773920,67661293920,324,13885,0,1,1,0
67651390000000,67651875000000,485.0,4096,66,65,8457593,8457657,67661301919,67661813917,163,13951,0,1,1,0
67651906000000,67652406000000,500.0,4096,67,66,8457658,8457723,67661821919,67662341917,1742,14018,0,1,1,0
67652625000000,67652937000000,312.0,4096,67,67,8457724,8457790,67662349917,67662877917,150,14085,0,1,1,0
67652953000000,67653468000000,515.0,4096,66,65,8457791,8457855,67662885918,67663397917,243,14151,0,1,1,0
67653500000000,67653984000000,484.0,4096,67,66,8457856,8457921,67663405917,67663925921,183,14218,0,1,1,0
67654015000000,67654515000000,500.0,4096,67,66,8457922,8457987,67663933920,67664453920,248,14285,0,1,1,0
67654546000000,67655031000000,485.0,4096,67,65,8457988,8458052,67664461920,67664973921,336,14352,0,1,1,0
67655078000000,67655562000000,484.0,4096,66,66,8458053,8458118,67664981920,67665501920,160,14418,0,1,1,0
67655578000000,67656093000000,515.0,4096,66,65,8458119,8458183,67665509921,67666021920,184,14484,0,1,1,0
67656109000000,67656625000000,516.0,4096,68,67,8458184,8458250,67666029917,67666557918,151,14552,0,1,1,0
67656640000000,67657140000000,500.0,4096,67,66,8458251,8458316,67666565917,67667085917,208,14619,0,1,1,0
67657171000000,67657671000000,500.0,4096,66,66,8458317,8458382,67667093920,67667613920,231,14685,0,1,1,0
67657703000000,67658203000000,500.0,4096,67,66,8458383,8458448,67667621920,67668141920,228,14752,0,1,1,0
67658234000000,67658734000000,500.0,4096,67,66,8458449,8458514,67668149920,67668669920,183,14819,0,1,1,0
67658750000000,67659265000000,515.0,4096,67,66,8458515,8458580,67668677920,67669197918,242,14886,0,1,1,0
67659281000000,67659781000000,500.0,4096,67,66,8458581,8458646,67669205920,67669725917,203,14953,0,1,1,0
67659812000000,67660312000000,500.0,4096,67,66,8458647,8458712,67669733918,67670253921,216,15020,0,1,1,0
67660343000000,67660843000000,500.0,4096,66,65,8458713,8458777,67670261921,67670773920,151,15086,0,1,1,0
67660859000000,67661359000000,500.0,4096,67,66,8458778,8458843,67670781920,67671301920,219,15153,0,1,1,0
67661390000000,67661890000000,500.0,4096,67,66,8458844,8458909,67671309920,67671829920,176,15220,0,1,1,0
67661906000000,67662406000000,500.0,4096,67,65,8458910,8458974,67671837920,67672349917,213,15287,0,1,1,0
67662437000000,67662953000000,516.0,4096,67,67,8458975,8459041,67672357917,67672885917,217,15354,0,1,1,0
67662968000000,67663468000000,500.0,4096,66,65,8459042,8459106,67672893920,67673405919,162,15420,0,1,1,0
67663500000000,67664000000000,500.0,4096,67,66,8459107,8459172,67673413920,67673933920,219,15487,0,1,1,0
67664031000000,67664531000000,500.0,4096,67,66,8459173,8459238,67673941921,67674461920,351,15554,0,1,1,0
67664578000000,67665046000000,468.0,4096,67,66,8459239,8459304,67674469918,67674989920,196,15621,0,1,1,0
67665078000000,67665578000000,500.0,4096,67,66,8459305,8459370,67674997916,67675517916,188,15688,0,1,1,0
67665609000000,67666109000000,500.0,4096,67,66,8459371,8459436,67675525917,67676045921,193,15755,0,1,1,0
67666140000000,67666640000000,500.0,4096,67,66,8459437,8459502,67676053916,67676573921,184,15822,0,1,1,0
67666656000000,67667171000000,515.0,4096,67,67,8459503,8459569,67676581921,67677109920,221,15889,0,1,1,0
67667187000000,67667687000000,500.0,4096,66,65,8459570,8459634,67677117920,67677629917,230,15955,0,1,1,0
67667718000000,67668218000000,500.0,4096,67,66,8459635,8459700,67677637920,67678157921,236,16022,0,1,1,0
67668250000000,67668750000000,500.0,4096,67,66,8459701,8459766,67678165920,67678685917,171,16089,0,1,1,0
67668765000000,67669265000000,500.0,4096,66,65,8459767,8459831,67678693918,67679205918,184,16155,0,1,1,0
67669296000000,67669812000000,516.0,4096,67,67,8459832,8459898,67679213920,67679741920,140,16222,0,1,1,0
67669828000000,67670328000000,500.0,4096,67,65,8459899,8459963,67679749917,67680261917,264,16289,0,1,1,0
67670359000000,67670843000000,484.0,4096,66,65,8459964,8460028,67680269918,67680781917,185,16355,0,1,1,0
67670875000000,67671359000000,484.0,4096,66,65,8460029,8460093,67680789916,67681301917,221,16421,0,1,1,0
67671390000000,67671890000000,500.0,4096,66,66,8460094,8460159,67681309920,67681829920,285,16487,0,1,1,0
67671921000000,67672406000000,485.0,4096,66,65,8460160,8460224,67681837920,67682349917,126,16553,0,1,1,0
67672421000000,67672921000000,500.0,4096,65,64,8460225,8460288,67682357918,67682861920,1946,16618,0,1,1,0
67673171000000,67673453000000,282.0,4096,66,65,8460289,8460353,67682869920,67683381920,308,16684,0,1,1,0
67673484000000,67673968000000,484.0,4096,66,65,8460354,8460418,67683389916,67683901920,322,16750,0,1,1,0
67674000000000,67674484000000,484.0,4096,65,65,8460419,8460483,67683909921,67684421920,196,16815,0,1,1,0
67674515000000,67675015000000,500.0,4096,68,66,8460484,8460549,67684429919,67684949920,239,16883,0,1,1,0
67675046000000,67675531000000,485.0,4096,67,66,8460550,8460615,67684957918,67685477920,236,16950,0,1,1,0
67675562000000,67676062000000,500.0,4096,66,65,8460616,8460680,67685485920,67685997917,227,17016,0,1,1,0
67676093000000,67676593000000,500.0,4096,67,67,8460681,8460747,67686005917,67686533920,229,17083,0,1,1,0
67676625000000,67677125000000,500.0,4096,67,66,8460748,8460813,67686541921,67687061921,269,17150,0,1,1,0
67677156000000,67677640000000,484.0,4096,66,65,8460814,8460878,67687069920,67687581916,187,17216,0,1,1,0
67677671000000,67678171000000,500.0,4096,68,67,8460879,8460945,67687589918,67688117920,215,17284,0,1,1,0
67678203000000,67678703000000,500.0,4096,66,66,8460946,8461011,67688125920,67688645920,125,17350,0,1,1,0
67678718000000,67679234000000,516.0,4096,67,66,8461012,8461077,67688653921,67689173918,193,17417,0,1,1,0
67679265000000,67679765000000,500.0,4096,67,66,8461078,8461143,67689181920,67689701920,124,17484,0,1,1,0
67679781000000,67680296000000,515.0,4096,68,66,8461144,8461209,67689709921,67690229917,267,17552,0,1,1,0
67680328000000,67680812000000,484.0,4096,66,65,8461210,8461274,67690237920,67690749921,135,17618,0,1,1,0
67680828000000,67681343000000,515.0,4096,67,67,8461275,8461341,67690757920,67691285919,272,17685,0,1,1,0
67681390000000,67681875000000,485.0,4096,67,66,8461342,8461407,67691293920,67691813920,246,17752,0,1,1,0
67681906000000,67682406000000,500.0,4096,67,65,8461408,8461472,67691821919,67692333921,153,17819,0,1,1,0
67682421000000,67682921000000,500.0,4096,67,66,8461473,8461538,67692341921,67692861921,210,17886,0,1,1,0
67682953000000,67683453000000,500.0,4096,66,66,8461539,8461604,67692869920,67693389919,190,17952,0,1,1,0
67683484000000,67683984000000,500.0,4096,67,66,8461605,8461670,67693397915,67693917921,197,18019,0,1,1,0
67684000000000,67684500000000,500.0,4096,67,66,8461671,8461736,67693925920,67694445917,214,18086,0,1,1,0
67684531000000,67685031000000,500.0,4096,67,65,8461737,8461801,67694453916,67694965920,134,18153,0,1,1,0
67685046000000,67685562000000,516.0,4096,67,67,8461802,8461868,67694973920,67695501920,364,18220,0,1,1,0
67685609000000,67686093000000,484.0,4096,67,66,8461869,8461934,67695509920,67696029918,236,18287,0,1,1,0
67686125000000,67686625000000,500.0,4096,67,66,8461935,8462000,67696037921,67696557920,360,18354,0,1,1,0
67686656000000,67687156000000,500.0,4096,66,66,8462001,8462066,67696565920,67697085916,233,18420,0,1,1,0
67687187000000,67687671000000,484.0,4096,67,66,8462067,8462132,67697093921,67697613919,143,18487,0,1,1,0
67687687000000,67688203000000,516.0,4096,67,66,8462133,8462198,67697621921,67698141920,227,18554,0,1,1,0
67688234000000,67688734000000,500.0,4096,67,66,8462199,8462264,67698149917,67698669920,224,18621,0,1,1,0
67688765000000,67689265000000,500.0,4096,66,66,8462265,8462330,67698677920,67699197916,186,18687,0,1,1,0
67689281000000,67689781000000,500.0,4096,67,66,8462331,8462396,67699205921,67699725918,217,18754,0,1,1,0
67689812000000,67690312000000,500.0,4096,67,65,8462397,8462461,67699733918,67700245920,139,18821,0,1,1,0
67690328000000,67690843000000,515.0,4096,67,67,8462462,8462528,67700253917,67700781920,228,18888,0,1,1,0
67690859000000,67691375000000,516.0,4096,67,66,8462529,8462594,67700789920,67701309918,152,18955,0,1,1,0
67691390000000,67691890000000,500.0,4096,66,65,8462595,8462659,67701317920,67701829916,318,19021,0,1,1,0
67691937000000,67692421000000,484.0,4096,67,66,8462660,8462725,67701837920,67702357917,125,19088,0,1,1,0
67692437000000,67692953000000,516.0,4096,67,67,8462726,8462792,67702365921,67702893920,203,19155,0,1,1,0
67692984000000,67693484000000,500.0,4096,66,65,8462793,8462857,67702901920,67703413920,1977,19221,0,1,1,0
67693734000000,67694000000000,266.0,4096,67,66,8462858,8462923,67703421921,67703941920,148,19288,0,1,1,0
67694031000000,67694531000000,500.0,4096,67,66,8462924,8462989,67703949920,67704469920,218,19355,0,1,1,0
67694562000000,67695062000000,500.0,4096,67,66,8462990,8463055,67704477921,67704997920,209,19422,0,1,1,0
67695093000000,67695593000000,500.0,4096,67,66,8463056,8463121,67705005916,67705525921,294,19489,0,1,1,0
67695625000000,67696125000000,500.0,4096,67,66,8463122,8463187,67705533920,67706053919,211,19556,0,1,1,0
67696140000000,67696640000000,500.0,4096,67,66,8463188,8463253,67706061920,67706581917,173,19623,0,1,1,0
67696671000000,67697171000000,500.0,4096,65,65,8463254,8463318,67706589917,67707101918,240,19688,0,1,1,0
67697203000000,67697687000000,484.0,4096,66,65,8463319,8463383,67707109918,67707621920,236,19754,0,1,1,0
67697718000000,67698203000000,485.0,4096,65,64,8463384,8463447,67707629921,67708133917,207,19819,0,1,1,0
67698218000000,67698718000000,500.0,4096,66,66,8463448,8463513,67708141917,67708661920,276,19885,0,1,1,0
67698750000000,67699234000000,484.0,4096,65,64,8463514,8463577,67708669918,67709173917,149,19950,0,1,1,0
67699250000000,67699765000000,515.0,4096,66,66,8463578,8463643,67709181920,67709701920,308,20016,0,1,1,0
67699796000000,67700281000000,485.0,4096,66,64,8463644,8463707,67709709920,67710213920,136,20082,0,1,1,0
67700296000000,67700796000000,500.0,4096,66,65,8463708,8463772,67710221917,67710733917,212,20148,0,1,1,0
67700828000000,67701312000000,484.0,4096,65,65,8463773,8463837,67710741917,67711253917,177,20213,0,1,1,0
67701343000000,67701843000000,500.0,4096,67,66,8463838,8463903,67711261917,67711781920,234,20280,0,1,1,0
67701875000000,67702359000000,484.0,4096,67,65,8463904,8463968,67711789916,67712301920,226,20347,0,1,1,0
67702390000000,67702890000000,500.0,4096,66,65,8463969,8464033,67712309918,67712821920,223,20413,0,1,1,0
67702921000000,67703421000000,500.0,4096,67,67,8464034,8464100,67712829917,67713357921,334,20480,0,1,1,0
67703468000000,67703953000000,485.0,4096,67,66,8464101,8464166,67713365920,67713885920,119,20547,0,1,1,0
67703968000000,67704484000000,516.0,4096,68,67,8464167,8464233,67713893921,67714421920,197,20615,0,1,1,0
67704515000000,67705015000000,500.0,4096,67,66,8464234,8464299,67714429918,67714949920,292,20682,0,1,1,0
67705046000000,67705531000000,485.0,4096,66,65,8464300,8464364,67714957920,67715469917,193,20748,0,1,1,0
67705562000000,67706062000000,500.0,4096,67,66,8464365,8464430,67715477920,67715997920,255,20815,0,1,1,0
67706093000000,67706593000000,500.0,4096,67,66,8464431,8464496,67716005920,67716525920,196,20882,0,1,1,0
67706609000000,67707125000000,516.0,4096,66,66,8464497,8464562,67716533920,67717053920,373,20948,0,1,1,0
67707171000000,67707640000000,469.0,4096,67,66,8464563,8464628,67717061918,67717581918,293,21015,0,1,1,0
67707687000000,67708171000000,484.0,4096,68,67,8464629,8464695,67717589917,67718117917,203,21083,0,1,1,0
67708203000000,67708703000000,500.0,4096,66,66,8464696,8464761,67718125920,67718645920,131,21149,0,1,1,0
67708734000000,67709234000000,500.0,4096,67,66,8464762,8464827,67718653920,67719173921,190,21216,0,1,1,0
67709265000000,67709765000000,500.0,4096,67,66,8464828,8464893,67719181917,67719701920,223,21283,0,1,1,0
67709796000000,67710296000000,500.0,4096,67,66,8464894,8464959,67719709920,67720229920,221,21350,0,1,1,0
67710312000000,67710812000000,500.0,4096,67,66,8464960,8465025,67720237917,67720757920,209,21417,0,1,1,0
67710843000000,67711343000000,500.0,4096,67,66,8465026,8465091,67720765916,67721285917,241,21484,0,1,1,0
67711375000000,67711875000000,500.0,4096,66,66,8465092,8465157,67721293920,67721813916,228,21550,0,1,1,0
67711906000000,67712406000000,500.0,4096,67,66,8465158,8465223,67721821917,67722341917,324,21617,0,1,1,0
67712437000000,67712921000000,484.0,4096,66,65,8465224,8465288,67722349919,67722861920,161,21683,0,1,1,0
67712953000000,67713453000000,500.0,4096,67,66,8465289,8465354,67722869916,67723389920,2281,21750,0,1,1,0
67713750000000,67713984000000,234.0,4096,67,67,8465355,8465421,67723397919,67723925921,214,21817,0,1,1,0
67714015000000,67714515000000,500.0,4096,66,65,8465422,8465486,67723933920,67724445920,121,21883,0,1,1,0
67714531000000,67715031000000,500.0,4096,67,65,8465487,8465551,67724453920,67724965921,251,21950,0,1,1,0
67715062000000,67715562000000,500.0,4096,67,66,8465552,8465617,67724973920,67725493920,214,22017,0,1,1,0
67715578000000,67716093000000,515.0,4096,66,66,8465618,8465683,67725501917,67726021918,314,22083,0,1,1,0
67716125000000,67716609000000,484.0,4096,67,66,8465684,8465749,67726029917,67726549920,173,22150,0,1,1,0
67716640000000,67717140000000,500.0,4096,67,66,8465750,8465815,67726557921,67727077920,233,22217,0,1,1,0
67717171000000,67717671000000,500.0,4096,67,66,8465816,8465881,67727085920,67727605918,220,22284,0,1,1,0
67717703000000,67718187000000,484.0,4096,67,66,8465882,8465947,67727613920,67728133920,211,22351,0,1,1,0
67718218000000,67718718000000,500.0,4096,66,66,8465948,8466013,67728141916,67728661920,225,22417,0,1,1,0
67718750000000,67719250000000,500.0,4096,66,65,8466014,8466078,67728669917,67729181920,167,22483,0,1,1,0
67719265000000,67719781000000,516.0,4096,68,67,8466079,8466145,67729189918,67729717917,240,22551,0,1,1,0
67719812000000,67720296000000,484.0,4096,67,65,8466146,8466210,67729725917,67730237920,207,22618,0,1,1,0
67720328000000,67720828000000,500.0,4096,67,67,8466211,8466277,67730245917,67730773920,142,22685,0,1,1,0
67720859000000,67721359000000,500.0,4096,67,66,8466278,8466343,67730781916,67731301920,303,22752,0,1,1,0
67721406000000,67721890000000,484.0,4096,67,66,8466344,8466409,67731309920,67731829920,205,22819,0,1,1,0
67721921000000,67722406000000,485.0,4096,67,65,8466410,8466474,67731837917,67732349920,274,22886,0,1,1,0
67722437000000,67722937000000,500.0,4096,66,66,8466475,8466540,67732357920,67732877919,226,22952,0,1,1,0
67722968000000,67723468000000,500.0,4096,67,66,8466541,8466606,67732885917,67733405918,171,23019,0,1,1,0
67723484000000,67723984000000,500.0,4096,66,65,8466607,8466671,67733413917,67733925920,291,23085,0,1,1,0
67724031000000,67724515000000,484.0,4096,67,66,8466672,8466737,67733933918,67734453916,133,23152,0,1,1,0
67724531000000,67725031000000,500.0,4096,67,65,8466738,8466802,67734461916,67734973920,268,23219,0,1,1,0
67725078000000,67725562000000,484.0,4096,66,66,8466803,8466868,67734981920,67735501921,266,23285,0,1,1,0
67725593000000,67726078000000,485.0,4096,65,64,8466869,8466932,67735509918,67736013917,172,23350,0,1,1,0
67726093000000,67726593000000,500.0,4096,66,65,8466933,8466997,67736021918,67736533920,414,23416,0,1,1,0
67726640000000,67727125000000,485.0,4096,66,65,8466998,8467062,67736541920,67737053920,287,23482,0,1,1,0
67727156000000,67727640000000,484.0,4096,65,65,8467063,8467127,67737061917,67737573918,225,23547,0,1,1,0
67727671000000,67728156000000,485.0,4096,66,65,8467128,8467192,67737581917,67738093916,165,23613,0,1,1,0
67728171000000,67728671000000,500.0,4096,66,65,8467193,8467257,67738101920,67738613917,230,23679,0,1,1,0
67728703000000,67729187000000,484.0,4096,66,65,8467258,8467322,67738621916,67739133920,157,23745,0,1,1,0
67729218000000,67729734000000,516.0,4096,67,67,8467323,8467389,67739141920,67739669917,241,23812,0,1,1,0
67729765000000,67730265000000,500.0,4096,68,66,8467390,8467455,67739677920,67740197917,237,23880,0,1,1,0
67730281000000,67730781000000,500.0,4096,67,66,8467456,8467521,67740205916,67740725920,175,23947,0,1,1,0
67730812000000,67731312000000,500.0,4096,66,65,8467522,8467586,67740733917,67741245918,237,24013,0,1,1,0
67731343000000,67731843000000,500.0,4096,67,67,8467587,8467653,67741253917,67741781920,153,24080,0,1,1,0
67731859000000,67732375000000,516.0,4096,67,66,8467654,8467719,67741789921,67742309920,315,24147,0,1,1,0
67732406000000,67732890000000,484.0,4096,66,65,8467720,8467784,67742317918,67742829917,312,24213,0,1,1,0
67732937000000,67733421000000,484.0,4096,67,66,8467785,8467850,67742837918,67743357920,2388,24280,0,1,1,0
67733734000000,67733953000000,219.0,4096,67,66,8467851,8467916,67743365918,67743885920,221,24347,0,1,1,0
67733984000000,67734484000000,500.0,4096,66,66,8467917,8467982,67743893920,67744413920,231,24413,0,1,1,0
67734515000000,67735000000000,485.0,4096,68,66,8467983,8468048,67744421920,67744941917,225,24481,0,1,1,0
67735031000000,67735531000000,500.0,4096,67,66,8468049,8468114,67744949920,67745469920,226,24548,0,1,1,0
67735562000000,67736062000000,500.0,4096,67,66,8468115,8468180,67745477917,67745997920,274,24615,0,1,1,0
67736093000000,67736593000000,500.0,4096,66,66,8468181,8468246,67746005916,67746525920,347,24681,0,1,1,0
67736640000000,67737125000000,485.0,4096,67,66,8468247,8468312,67746533917,67747053918,531,24748,0,1,1,0
67737187000000,67737640000000,453.0,4096,67,66,8468313,8468378,67747061917,67747581920,439,24815,0,1,1,0
67737703000000,67738171000000,468.0,4096,66,65,8468379,8468443,67747589917,67748101917,410,24881,0,1,1,0
67738218000000,67738687000000,469.0,4096,67,66,8468444,8468509,67748109917,67748629917,190,24948,0,1,1,0
67738718000000,67739218000000,500.0,4096,67,67,8468510,8468576,67748637921,67749165917,280,25015,0,1,1,0
67739265000000,67739750000000,485.0,4096,66,65,8468577,8468641,67749173920,67749685920,211,25081,0,1,1,0
67739781000000,67740265000000,484.0,4096,67,65,8468642,8468706,67749693920,67750205918,305,25148,0,1,1,0
67740312000000,67740796000000,484.0,4096,67,66,8468707,8468772,67750213920,67750733920,268,25215,0,1,1,0
67740828000000,67741328000000,500.0,4096,66,66,8468773,8468838,67750741916,67751261918,152,25281,0,1,1,0
67741343000000,67741843000000,500.0,4096,66,65,8468839,8468903,67751269918,67751781916,221,25347,0,1,1,0
67741875000000,67742375000000,500.0,4096,68,66,8468904,8468969,67751789917,67752309920,309,25415,0,1,1,0
67742406000000,67742906000000,500.0,4096,67,66,8468970,8469035,67752317920,67752837917,252,25482,0,1,1,0
67742937000000,67743437000000,500.0,4096,66,66,8469036,8469101,67752845920,67753365920,220,25548,0,1,1,0
67743453000000,67743953000000,500.0,4096,67,66,8469102,8469167,67753373917,67753893920,256,25615,0,1,1,0
67743984000000,67744484000000,500.0,4096,66,65,8469168,8469232,67753901918,67754413920,261,25681,0,1,1,0
67744515000000,67745000000000,485.0,4096,67,65,8469233,8469297,67754421919,67754933918,161,25748,0,1,1,0
67745015000000,67745531000000,516.0,4096,67,67,8469298,8469364,67754941920,67755469920,225,25815,0,1,1,0
67745562000000,67746046000000,484.0,4096,66,65,8469365,8469429,67755477920,67755989920,312,25881,0,1,1,0
67746093000000,67746578000000,485.0,4096,66,65,8469430,8469494,67755997921,67756509918,222,25947,0,1,1,0
67746593000000,67747093000000,500.0,4096,66,65,8469495,8469559,67756517920,67757029920,349,26013,0,1,1,0
67747140000000,67747609000000,469.0,4096,65,65,8469560,8469624,67757037917,67757549920,303,26078,0,1,1,0
67747656000000,67748125000000,469.0,4096,66,65,8469625,8469689,67757557920,67758069921,303,26144,0,1,1,0
67748171000000,67748640000000,469.0,4096,65,64,8469690,8469753,67758077917,67758581920,172,26209,0,1,1,0
67748671000000,67749156000000,485.0,4096,66,65,8469754,8469818,67758589920,67759101917,267,26275,0,1,1,0
67749203000000,67749687000000,484.0,4096,65,65,8469819,8469883,67759109917,67759621917,157,26340,0,1,1,0
67749703000000,67750187000000,484.0,4096,66,64,8469884,8469947,67759629920,67760133920,380,26406,0,1,1,0
67750250000000,67750718000000,468.0,4096,66,65,8469948,8470012,67760141920,67760653921,169,26472,0,1,1,0
67750734000000,67751234000000,500.0,4096,65,64,8470013,8470076,67760661917,67761165920,236,26537,0,1,1,0
67751265000000,67751750000000,485.0,4096,66,66,8470077,8470142,67761173920,67761693917,204,26603,0,1,1,0
67751781000000,67752281000000,500.0,4096,66,65,8470143,8470207,67761701920,67762213918,343,26669,0,1,1,0
67752328000000,67752812000000,484.0,4096,67,66,8470208,8470273,67762221921,67762741920,221,26736,0,1,1,0
67752828000000,67753328000000,500.0,4096,67,66,8470274,8470339,67762749920,67763269920,158,26803,0,1,1,0
67753359000000,67753859000000,500.0,4096,67,66,8470340,8470405,67763277920,67763797918,2660,26870,0,1,1,0
67754203000000,67754390000000,187.0,4096,66,66,8470406,8470471,67763805920,67764325920,262,26936,0,1,1,0
67754421000000,67754921000000,500.0,4096,67,66,8470472,8470537,67764333917,67764853920,264,27003,0,1,1,0
67754953000000,67755437000000,484.0,4096,67,65,8470538,8470602,67764861916,67765373918,217,27070,0,1,1,0
67755468000000,67755968000000,500.0,4096,66,66,8470603,8470668,67765381917,67765901920,329,27136,0,1,1,0
67756000000000,67756484000000,484.0,4096,67,66,8470669,8470734,67765909921,67766429920,273,27203,0,1,1,0
67756515000000,67757015000000,500.0,4096,66,65,8470735,8470799,67766437921,67766949918,235,27269,0,1,1,0
67757046000000,67757546000000,500.0,4096,66,66,8470800,8470865,67766957920,67767477920,417,27335,0,1,1,0
67757593000000,67758062000000,469.0,4096,67,66,8470866,8470931,67767485917,67768005916,191,27402,0,1,1,0
67758093000000,67758593000000,500.0,4096,67,66,8470932,8470997,67768013921,67768533916,338,27469,0,1,1,0
67758640000000,67759125000000,485.0,4096,66,65,8470998,8471062,67768541917,67769053920,303,27535,0,1,1,0
67759156000000,67759640000000,484.0,4096,66,66,8471063,8471128,67769061918,67769581920,194,27601,0,1,1,0
67759671000000,67760171000000,500.0,4096,67,65,8471129,8471193,67769589921,67770101919,232,27668,0,1,1,0
67760203000000,67760687000000,484.0,4096,67,66,8471194,8471259,67770109921,67770629920,171,27735,0,1,1,0
67760718000000,67761218000000,500.0,4096,66,66,8471260,8471325,67770637916,67771157917,266,27801,0,1,1,0
67761250000000,67761750000000,500.0,4096,67,66,8471326,8471391,67771165920,67771685920,311,27868,0,1,1,0
67761781000000,67762265000000,484.0,4096,67,65,8471392,8471456,67771693920,67772205920,231,27935,0,1,1,0
67762296000000,67762796000000,500.0,4096,66,65,8471457,8471521,67772213921,67772725920,228,28001,0,1,1,0
67762828000000,67763328000000,500.0,4096,67,67,8471522,8471588,67772733919,67773261916,193,28068,0,1,1,0
67763343000000,67763843000000,500.0,4096,67,66,8471589,8471654,67773269920,67773789916,238,28135,0,1,1,0
67763875000000,67764375000000,500.0,4096,66,65,8471655,8471719,67773797921,67774309918,169,28201,0,1,1,0
67764390000000,67764906000000,516.0,4096,67,67,8471720,8471786,67774317920,67774845917,240,28268,0,1,1,0
67764937000000,67765421000000,484.0,4096,67,65,8471787,8471851,67774853921,67775365920,301,28335,0,1,1,0
67765468000000,67765953000000,485.0,4096,66,65,8471852,8471916,67775373920,67775885920,299,28401,0,1,1,0
67765984000000,67766484000000,500.0,4096,66,66,8471917,8471982,67775893920,67776413921,255,28467,0,1,1,0
67766515000000,67767000000000,485.0,4096,67,66,8471983,8472048,67776421920,67776941920,199,28534,0,1,1,0
67767031000000,67767531000000,500.0,4096,67,66,8472049,8472114,67776949920,67777469920,234,28601,0,1,1,0
67767562000000,67768062000000,500.0,4096,66,66,8472115,8472180,67777477918,67777997917,231,28667,0,1,1,0
67768093000000,67768593000000,500.0,4096,67,66,8472181,8472246,67778005918,67778525918,267,28734,0,1,1,0
67768625000000,67769109000000,484.0,4096,66,65,8472247,8472311,67778533919,67779045920,325,28800,0,1,1,0
67769156000000,67769640000000,484.0,4096,67,67,8472312,8472378,67779053920,67779581917,165,28867,0,1,1,0
67769671000000,67770156000000,485.0,4096,67,65,8472379,8472443,67779589918,67780101920,323,28934,0,1,1,0
67770203000000,67770687000000,484.0,4096,66,65,8472444,8472508,67780109920,67780621918,232,29000,0,1,1,0
67770718000000,67771218000000,500.0,4096,67,67,8472509,8472575,67780629917,67781157921,277,29067,0,1,1,0
67771250000000,67771750000000,500.0,4096,66,65,8472576,8472640,67781165920,67781677921,260,29133,0,1,1,0
67771781000000,67772265000000,484.0,4096,67,66,8472641,8472706,67781685917,67782205920,286,29200,0,1,1,0
67772312000000,67772796000000,484.0,4096,67,66,8472707,8472772,67782213916,67782733920,222,29267,0,1,1,0
67772828000000,67773328000000,500.0,4096,67,67,8472773,8472839,67782741920,67783269920,217,29334,0,1,1,0
67773359000000,67773859000000,500.0,4096,66,65,8472840,8472904,67783277917,67783789917,2562,29400,0,1,1,0
67774187000000,67774375000000,188.0,4096,67,66,8472905,8472970,67783797921,67784317920,230,29467,0,1,1,0
67774406000000,67774906000000,500.0,4096,66,66,8472971,8473036,67784325920,67784845920,177,29533,0,1,1,0
67774937000000,67775421000000,484.0,4096,66,64,8473037,8473100,67784853917,67785357920,270,29599,0,1,1,0
67775453000000,67775937000000,484.0,4096,66,65,8473101,8473165,67785365920,67785877920,206,29665,0,1,1,0
67775968000000,67776453000000,485.0,4096,65,64,8473166,8473229,67785885921,67786389916,235,29730,0,1,1,0
67776484000000,67776968000000,484.0,4096,65,65,8473230,8473294,67786397921,67786909917,192,29795,0,1,1,0
67777000000000,67777484000000,484.0,4096,66,65,8473295,8473359,67786917917,67787429920,231,29861,0,1,1,0
67777515000000,67778000000000,485.0,4096,65,64,8473360,8473423,67787437920,67787941921,168,29926,0,1,1,0
67778031000000,67778515000000,484.0,4096,66,65,8473424,8473488,67787949918,67788461920,230,29992,0,1,1,0
67778546000000,67779046000000,500.0,4096,65,65,8473489,8473553,67788469921,67788981920,266,30057,0,1,1,0
67779078000000,67779562000000,484.0,4096,66,65,8473554,8473618,67788989920,67789501917,164,30123,0,1,1,0
67779593000000,67780093000000,500.0,4096,67,65,8473619,8473683,67789509918,67790021917,343,30190,0,1,1,0
67780125000000,67780625000000,500.0,4096,67,67,8473684,8473750,67790029916,67790557920,262,30257,0,1,1,0
67780656000000,67781140000000,484.0,4096,67,66,8473751,8473816,67790565921,67791085917,299,30324,0,1,1,0
67781187000000,67781671000000,484.0,4096,66,65,8473817,8473881,67791093916,67791605917,244,30390,0,1,1,0
67781703000000,67782187000000,484.0,4096,67,66,8473882,8473947,67791613921,67792133918,212,30457,0,1,1,0
67782218000000,67782718000000,500.0,4096,67,66,8473948,8474013,67792141920,67792661921,263,30524,0,1,1,0
67782765000000,67783250000000,485.0,4096,66,65,8474014,8474078,67792669917,67793181920,195,30590,0,1,1,0
67783265000000,67783765000000,500.0,4096,67,66,8474079,8474144,67793189920,67793709918,292,30657,0,1,1,0
67783812000000,67784296000000,484.0,4096,66,65,8474145,8474209,67793717919,67794229920,199,30723,0,1,1,0
67784328000000,67784812000000,484.0,4096,67,66,8474210,8474275,67794237920,67794757918,226,30790,0,1,1,0
67784843000000,67785343000000,500.0,4096,67,66,8474276,8474341,67794765920,67795285920,221,30857,0,1,1,0
67785375000000,67785875000000,500.0,4096,66,65,8474342,8474406,67795293920,67795805920,184,30923,0,1,1,0
67785906000000,67786406000000,500.0,4096,67,66,8474407,8474472,67795813920,67796333918,227,30990,0,1,1,0
67786437000000,67786921000000,484.0,4096,67,66,8474473,8474538,67796341920,67796861918,157,31057,0,1,1,0
67786937000000,67787437000000,500.0,4096,66,65,8474539,8474603,67796869920,67797381918,345,31123,0,1,1,0
67787484000000,67787968000000,484.0,4096,65,65,8474604,8474668,67797389920,67797901921,265,31188,0,1,1,0
67788000000000,67788484000000,484.0,4096,65,64,8474669,8474732,67797909920,67798413920,264,31253,0,1,1,0
67788515000000,67789000000000,485.0,4096,66,65,8474733,8474797,67798421920,67798933916,294,31319,0,1,1,0
67789031000000,67789515000000,484.0,4096,65,64,8474798,8474861,67798941920,67799445920,176,31384,0,1,1,0
67789531000000,67790031000000,500.0,4096,66,65,8474862,8474926,67799453920,67799965921,222,31450,0,1,1,0
67790062000000,67790546000000,484.0,4096,65,64,8474927,8474990,67799973920,67800477921,166,31515,0,1,1,0
67790562000000,67791062000000,500.0,4096,66,65,8474991,8475055,67800485916,67800997917,404,31581,0,1,1,0
67791125000000,67791593000000,468.0,4096,67,67,8475056,8475122,67801005919,67801533916,507,31648,0,1,1,0
67791656000000,67792125000000,469.0,4096,67,66,8475123,8475188,67801541916,67802061920,240,31715,0,1,1,0
67792156000000,67792656000000,500.0,4096,67,66,8475189,8475254,67802069916,67802589920,237,31782,0,1,1,0
67792687000000,67793171000000,484.0,4096,66,65,8475255,8475319,67802597920,67803109918,176,31848,0,1,1,0
67793203000000,67793703000000,500.0,4096,67,66,8475320,8475385,67803117920,67803637920,234,31915,0,1,1,0
67793734000000,67794234000000,500.0,4096,66,66,8475386,8475451,67803645921,67804165921,253,31981,0,1,1,0
67794265000000,67794750000000,485.0,4096,66,65,8475452,8475516,67804173920,67804685917,2830,32047,0,1,1,0
67795093000000,67795265000000,172.0,4096,66,64,8475517,8475580,67804693920,67805197921,278,32113,0,1,1,0
67795296000000,67795781000000,485.0,4096,66,65,8475581,8475645,67805205920,67805717920,208,32179,0,1,1,0
67795812000000,67796296000000,484.0,4096,66,65,8475646,8475710,67805725918,67806237920,315,32245,0,1,1,0
67796328000000,67796812000000,484.0,4096,65,64,8475711,8475774,67806245920,67806749921,157,32310,0,1,1,0
67796828000000,67797328000000,500.0,4096,65,65,8475775,8475839,67806757920,67807269916,264,32375,0,1,1,0
67797375000000,67797859000000,484.0,4096,66,65,8475840,8475904,67807277917,67807789918,249,32441,0,1,1,0
67797890000000,67798375000000,485.0,4096,66,65,8475905,8475969,67807797920,67808309920,301,32507,0,1,1,0
67798406000000,67798890000000,484.0,4096,65,64,8475970,8476033,67808317920,67808821920,176,32572,0,1,1,0
67798906000000,67799406000000,500.0,4096,66,65,8476034,8476098,67808829920,67809341920,281,32638,0,1,1,0
67799437000000,67799921000000,484.0,4096,66,66,8476099,8476164,67809349920,67809869920,348,32704,0,1,1,0
67799968000000,67800437000000,469.0,4096,66,64,8476165,8476228,67809877917,67810381920,211,32770,0,1,1,0
67800468000000,67800968000000,500.0,4096,66,65,8476229,8476293,67810389918,67810901920,283,32836,0,1,1,0
67801000000000,67801484000000,484.0,4096,65,64,8476294,8476357,67810909917,67811413920,206,32901,0,1,1,0
67801500000000,67802000000000,500.0,4096,66,65,8476358,8476422,67811421921,67811933917,345,32967,0,1,1,0
67802046000000,67802515000000,469.0,4096,67,66,8476423,8476488,67811941917,67812461920,195,33034,0,1,1,0
67802546000000,67803046000000,500.0,4096,66,65,8476489,8476553,67812469921,67812981918,249,33100,0,1,1,0
67803078000000,67803578000000,500.0,4096,67,66,8476554,8476619,67812989918,67813509920,280,33167,0,1,1,0
67803609000000,67804093000000,484.0,4096,67,66,8476620,8476685,67813517921,67814037918,458,33234,0,1,1,0
67804156000000,67804625000000,469.0,4096,66,66,8476686,8476751,67814045917,67814565916,300,33300,0,1,1,0
67804656000000,67805156000000,500.0,4096,68,66,8476752,8476817,67814573918,67815093920,188,33368,0,1,1,0
67805187000000,67805671000000,484.0,4096,66,65,8476818,8476882,67815101920,67815613920,282,33434,0,1,1,0
67805718000000,67806203000000,485.0,4096,67,66,8476883,8476948,67815621920,67816141920,161,33501,0,1,1,0
67806218000000,67806734000000,516.0,4096,67,66,8476949,8477014,67816149918,67816669920,348,33568,0,1,1,0
67806781000000,67807265000000,484.0,4096,67,66,8477015,8477080,67816677916,67817197920,399,33635,0,1,1,0
67807312000000,67807781000000,469.0,4096,66,66,8477081,8477146,67817205920,67817725918,228,33701,0,1,1,0
67807812000000,67808312000000,500.0,4096,66,65,8477147,8477211,67817733920,67818245920,250,33767,0,1,1,0
67808343000000,67808843000000,500.0,4096,67,66,8477212,8477277,67818253917,67818773921,184,33834,0,1,1,0
67808859000000,67809359000000,500.0,4096,67,66,8477278,8477343,67818781920,67819301918,353,33901,0,1,1,0
67809406000000,67809890000000,484.0,4096,66,66,8477344,8477409,67819309918,67819829920,189,33967,0,1,1,0
67809906000000,67810406000000,500.0,4096,67,65,8477410,8477474,67819837920,67820349920,275,34034,0,1,1,0
67810453000000,67810937000000,484.0,4096,67,66,8477475,8477540,67820357916,67820877920,270,34101,0,1,1,0
67810968000000,67811453000000,485.0,4096,66,65,8477541,8477605,67820885920,67821397916,189,34167,0,1,1,0
67811484000000,67811984000000,500.0,4096,65,65,8477606,8477670,67821405920,67821917919,353,34232,0,1,1,0
67812015000000,67812500000000,485.0,4096,66,65,8477671,8477735,67821925917,67822437920,196,34298,0,1,1,0
67812531000000,67813015000000,484.0,4096,66,65,8477736,8477800,67822445920,67822957920,346,34364,0,1,1,0
67813062000000,67813531000000,469.0,4096,65,64,8477801,8477864,67822965920,67823469920,219,34429,0,1,1,0
67813562000000,67814062000000,500.0,4096,65,65,8477865,8477929,67823477917,67823989920,253,34494,0,1,1,0
67814093000000,67814578000000,485.0,4096,66,65,8477930,8477994,67823997920,67824509917,3162,34560,0,1,1,0
67814968000000,67815078000000,110.0,4096,66,64,8477995,8478058,67824517920,67825021920,284,34626,0,1,1,0
67815125000000,67815593000000,468.0,4096,65,64,8478059,8478122,67825029921,67825533918,386,34691,0,1,1,0
67815656000000,67816125000000,469.0,4096,66,66,8478123,8478188,67825541920,67826061920,219,34757,0,1,1,0
67816140000000,67816640000000,500.0,4096,65,64,8478189,8478252,67826069921,67826573920,281,34822,0,1,1,0
67816671000000,67817156000000,485.0,4096,65,64,8478253,8478316,67826581920,67827085919,256,34887,0,1,1,0
67817187000000,67817671000000,484.0,4096,66,65,8478317,8478381,67827093917,67827605920,232,34953,0,1,1,0
67817703000000,67818187000000,484.0,4096,65,65,8478382,8478446,67827613918,67828125916,276,35018,0,1,1,0
67818218000000,67818703000000,485.0,4096,66,65,8478447,8478511,67828133920,67828645920,303,35084,0,1,1,0
67818750000000,67819234000000,484.0,4096,66,65,8478512,8478576,67828653917,67829165920,243,35150,0,1,1,0
67819250000000,67819750000000,500.0,4096,66,65,8478577,8478641,67829173918,67829685918,309,35216,0,1,1,0
67819781000000,67820265000000,484.0,4096,67,65,8478642,8478706,67829693917,67830205920,296,35283,0,1,1,0
67820312000000,67820796000000,484.0,4096,67,67,8478707,8478773,67830213920,67830741918,338,35350,0,1,1,0
67820843000000,67821328000000,485.0,4096,66,65,8478774,8478838,67830749920,67831261920,368,35416,0,1,1,0
67821375000000,67821843000000,468.0,4096,67,66,8478839,8478904,67831269920,67831789917,218,35483,0,1,1,0
67821875000000,67822375000000,500.0,4096,67,65,8478905,8478969,67831797916,67832309920,466,35550,0,1,1,0
67822421000000,67822906000000,485.0,4096,66,66,8478970,8479035,67832317921,67832837916,232,35616,0,1,1,0
67822937000000,67823421000000,484.0,4096,66,65,8479036,8479100,67832845917,67833357918,203,35682,0,1,1,0
67823453000000,67823953000000,500.0,4096,67,66,8479101,8479166,67833365920,67833885920,259,35749,0,1,1,0
67823984000000,67824484000000,500.0,4096,66,66,8479167,8479232,67833893920,67834413916,181,35815,0,1,1,0
67824500000000,67825000000000,500.0,4096,67,65,8479233,8479297,67834421920,67834933920,308,35882,0,1,1,0
67825031000000,67825515000000,484.0,4096,67,66,8479298,8479363,67834941920,67835461920,303,35949,0,1,1,0
67825562000000,67826046000000,484.0,4096,66,66,8479364,8479429,67835469920,67835989918,151,36015,0,1,1,0
67826078000000,67826578000000,500.0,4096,66,65,8479430,8479494,67835997920,67836509919,308,36081,0,1,1,0
67826625000000,67827109000000,484.0,4096,67,66,8479495,8479560,67836517919,67837037918,370,36148,0,1,1,0
67827156000000,67827625000000,469.0,4096,66,66,8479561,8479626,67837045920,67837565917,271,36214,0,1,1,0
67827656000000,67828156000000,500.0,4096,67,66,8479627,8479692,67837573920,67838093917,260,36281,0,1,1,0
67828187000000,67828671000000,484.0,4096,66,65,8479693,8479757,67838101920,67838613920,156,36347,0,1,1,0
67828703000000,67829218000000,515.0,4096,68,67,8479758,8479824,67838621918,67839149921,274,36415,0,1,1,0
67829250000000,67829734000000,484.0,4096,66,66,8479825,8479890,67839157918,67839677916,165,36481,0,1,1,0
67829765000000,67830265000000,500.0,4096,67,65,8479891,8479955,67839685920,67840197916,255,36548,0,1,1,0
67830296000000,67830781000000,485.0,4096,66,65,8479956,8480020,67840205918,67840717920,191,36614,0,1,1,0
67830812000000,67831312000000,500.0,4096,67,67,8480021,8480087,67840725920,67841253917,265,36681,0,1,1,0
67831343000000,67831843000000,500.0,4096,66,65,8480088,8480152,67841261917,67841773920,268,36747,0,1,1,0
67831875000000,67832359000000,484.0,4096,67,66,8480153,8480218,67841781920,67842301920,241,36814,0,1,1,0
67832390000000,67832890000000,500.0,4096,66,65,8480219,8480283,67842309917,67842821919,301,36880,0,1,1,0
67832921000000,67833421000000,500.0,4096,67,67,8480284,8480350,67842829916,67843357920,279,36947,0,1,1,0
67833453000000,67833937000000,484.0,4096,66,65,8480351,8480415,67843365920,67843877920,189,37013,0,1,1,0
67833968000000,67834468000000,500.0,4096,67,66,8480416,8480481,67843885920,67844405917,362,37080,0,1,1,0
67834515000000,67835000000000,485.0,4096,67,66,8480482,8480547,67844413920,67844933920,3346,37147,0,1,1,0
67835421000000,67835515000000,94.0,4096,67,66,8480548,8480613,67844941918,67845461920,273,37214,0,1,1,0
67835562000000,67836046000000,484.0,4096,66,65,8480614,8480678,67845469916,67845981920,309,37280,0,1,1,0
67836078000000,67836578000000,500.0,4096,67,66,8480679,8480744,67845989918,67846509920,177,37347,0,1,1,0
67836593000000,67837093000000,500.0,4096,66,66,8480745,8480810,67846517920,67847037920,428,37413,0,1,1,0
67837156000000,67837625000000,469.0,4096,67,66,8480811,8480876,67847045917,67847565920,157,37480,0,1,1,0
67837656000000,67838156000000,500.0,4096,67,66,8480877,8480942,67847573920,67848093917,258,37547,0,1,1,0
67838187000000,67838687000000,500.0,4096,66,66,8480943,8481008,67848101917,67848621917,272,37613,0,1,1,0
67838718000000,67839218000000,500.0,4096,67,66,8481009,8481074,67848629920,67849149920,232,37680,0,1,1,0
67839250000000,67839734000000,484.0,4096,66,65,8481075,8481139,67849157920,67849669918,298,37746,0,1,1,0
67839765000000,67840250000000,485.0,4096,66,64,8481140,8481203,67849677916,67850181920,238,37812,0,1,1,0
67840281000000,67840765000000,484.0,4096,65,65,8481204,8481268,67850189918,67850701918,290,37877,0,1,1,0
67840812000000,67841281000000,469.0,4096,66,65,8481269,8481333,67850709920,67851221920,163,37943,0,1,1,0
67841312000000,67841796000000,484.0,4096,65,64,8481334,8481397,67851229920,67851733918,440,38008,0,1,1,0
67841859000000,67842312000000,453.0,4096,66,65,8481398,8481462,67851741917,67852253920,283,38074,0,1,1,0
67842343000000,67842828000000,485.0,4096,66,65,8481463,8481527,67852261920,67852773920,283,38140,0,1,1,0
67842875000000,67843359000000,484.0,4096,66,65,8481528,8481592,67852781920,67853293920,206,38206,0,1,1,0
67843375000000,67843875000000,500.0,4096,66,65,8481593,8481657,67853301920,67853813918,310,38272,0,1,1,0
67843906000000,67844406000000,500.0,4096,66,66,8481658,8481723,67853821920,67854341920,265,38338,0,1,1,0
67844437000000,67844937000000,500.0,4096,67,66,8481724,8481789,67854349918,67854869917,152,38405,0,1,1,0
67844953000000,67845453000000,500.0,4096,67,65,8481790,8481854,67854877920,67855389920,332,38472,0,1,1,0
67845500000000,67845984000000,484.0,4096,67,67,8481855,8481921,67855397917,67855925920,232,38539,0,1,1,0
67846015000000,67846515000000,500.0,4096,67,66,8481922,8481987,67855933917,67856453917,361,38606,0,1,1,0
67846562000000,67847031000000,469.0,4096,66,65,8481988,8482052,67856461920,67856973920,325,38672,0,1,1,0
67847078000000,67847578000000,500.0,4096,67,67,8482053,8482119,67856981920,67857509920,253,38739,0,1,1,0
67847609000000,67848093000000,484.0,4096,67,66,8482120,8482185,67857517920,67858037917,536,38806,0,1,1,0
67848171000000,67848625000000,454.0,4096,66,65,8482186,8482250,67858045920,67858557918,184,38872,0,1,1,0
67848656000000,67849156000000,500.0,4096,67,67,8482251,8482317,67858565920,67859093920,257,38939,0,1,1,0
67849187000000,67849687000000,500.0,4096,67,66,8482318,8482383,67859101921,67859621918,268,39006,0,1,1,0
67849718000000,67850203000000,485.0,4096,67,65,8482384,8482448,67859629917,67860141920,237,39073,0,1,1,0
67850234000000,67850734000000,500.0,4096,67,67,8482449,8482515,67860149917,67860677921,268,39140,0,1,1,0
67850765000000,67851265000000,500.0,4096,66,65,8482516,8482580,67860685920,67861197920,175,39206,0,1,1,0
67851281000000,67851781000000,500.0,4096,67,66,8482581,8482646,67861205916,67861725918,302,39273,0,1,1,0
67851828000000,67852312000000,484.0,4096,66,65,8482647,8482711,67861733920,67862245916,246,39339,0,1,1,0
67852343000000,67852843000000,500.0,4096,66,66,8482712,8482777,67862253920,67862773920,259,39405,0,1,1,0
67852875000000,67853359000000,484.0,4096,67,66,8482778,8482843,67862781921,67863301920,261,39472,0,1,1,0
67853390000000,67853890000000,500.0,4096,66,65,8482844,8482908,67863309918,67863821917,202,39538,0,1,1,0
67853906000000,67854421000000,515.0,4096,67,67,8482909,8482975,67863829918,67864357920,419,39605,0,1,1,0
67854468000000,67854937000000,469.0,4096,66,65,8482976,8483040,67864365916,67864877916,281,39671,0,1,1,0
67854968000000,67855453000000,485.0,4096,67,65,8483041,8483105,67864885918,67865397920,3488,39738,0,1,1,0
67855906000000,67855984000000,78.0,4096,67,66,8483106,8483171,67865405920,67865925920,312,39805,0,1,1,0
67856031000000,67856515000000,484.0,4096,66,66,8483172,8483237,67865933920,67866453920,167,39871,0,1,1,0
67856546000000,67857046000000,500.0,4096,67,66,8483238,8483303,67866461918,67866981921,358,39938,0,1,1,0
67857093000000,67857578000000,485.0,4096,67,66,8483304,8483369,67866989920,67867509920,239,40005,0,1,1,0
67857593000000,67858093000000,500.0,4096,66,65,8483370,8483434,67867517920,67868029918,392,40071,0,1,1,0
67858140000000,67858625000000,485.0,4096,66,66,8483435,8483500,67868037920,67868557918,221,40137,0,1,1,0
67858656000000,67859140000000,484.0,4096,67,66,8483501,8483566,67868565920,67869085920,280,40204,0,1,1,0
67859187000000,67859671000000,484.0,4096,66,65,8483567,8483631,67869093920,67869605921,255,40270,0,1,1,0
67859703000000,67860187000000,484.0,4096,67,65,8483632,8483696,67869613917,67870125918,194,40337,0,1,1,0
67860218000000,67860718000000,500.0,4096,66,66,8483697,8483762,67870133921,67870653917,373,40403,0,1,1,0
67860765000000,67861234000000,469.0,4096,65,64,8483763,8483826,67870661920,67871165920,169,40468,0,1,1,0
67861250000000,67861750000000,500.0,4096,66,65,8483827,8483891,67871173918,67871685920,304,40534,0,1,1,0
67861781000000,67862265000000,484.0,4096,66,65,8483892,8483956,67871693917,67872205921,272,40600,0,1,1,0
67862296000000,67862781000000,485.0,4096,65,64,8483957,8484020,67872213920,67872717920,281,40665,0,1,1,0
67862812000000,67863296000000,484.0,4096,66,65,8484021,8484085,67872725917,67873237920,217,40731,0,1,1,0
67863328000000,67863812000000,484.0,4096,65,64,8484086,8484149,67873245920,67873749918,250,40796,0,1,1,0
67863843000000,67864328000000,485.0,4096,65,65,8484150,8484214,67873757917,67874269920,243,40861,0,1,1,0
67864359000000,67864859000000,500.0,4096,67,66,8484215,8484280,67874277920,67874797920,272,40928,0,1,1,0
67864890000000,67865375000000,485.0,4096,66,65,8484281,8484345,67874805916,67875317917,296,40994,0,1,1,0
67865421000000,67865906000000,485.0,4096,67,66,8484346,8484411,67875325918,67875845920,276,41061,0,1,1,0
67865953000000,67866437000000,484.0,4096,66,65,8484412,8484476,67875853918,67876365916,248,41127,0,1,1,0
67866468000000,67866953000000,485.0,4096,67,66,8484477,8484542,67876373920,67876893920,184,41194,0,1,1,0
67866984000000,67867484000000,500.0,4096,66,65,8484543,8484607,67876901920,67877413920,435,41260,0,1,1,0
67867531000000,67868015000000,484.0,4096,67,67,8484608,8484674,67877421921,67877949917,238,41327,0,1,1,0
67868031000000,67868531000000,500.0,4096,66,65,8484675,8484739,67877957917,67878469920,415,41393,0,1,1,0
67868593000000,67869062000000,469.0,4096,67,66,8484740,8484805,67878477917,67878997917,319,41460,0,1,1,0
67869093000000,67869578000000,485.0,4096,66,65,8484806,8484870,67879005916,67879517919,318,41526,0,1,1,0
67869625000000,67870109000000,484.0,4096,67,65,8484871,8484935,67879525920,67880037921,383,41593,0,1,1,0
67870156000000,67870625000000,469.0,4096,67,67,8484936,8485002,67880045918,67880573918,248,41660,0,1,1,0
67870671000000,67871156000000,485.0,4096,65,64,8485003,8485066,67880581921,67881085920,364,41725,0,1,1,0
67871203000000,67871671000000,468.0,4096,66,65,8485067,8485131,67881093918,67881605919,193,41791,0,1,1,0
67871687000000,67872187000000,500.0,4096,65,64,8485132,8485195,67881613920,67882117920,379,41856,0,1,1,0
67872234000000,67872703000000,469.0,4096,66,66,8485196,8485261,67882125917,67882645920,431,41922,0,1,1,0
67872765000000,67873234000000,469.0,4096,66,65,8485262,8485326,67882653916,67883165918,272,41988,0,1,1,0
67873265000000,67873750000000,485.0,4096,65,65,8485327,8485391,67883173920,67883685920,317,42053,0,1,1,0
67873796000000,67874265000000,469.0,4096,66,65,8485392,8485456,67883693920,67884205920,227,42119,0,1,1,0
67874296000000,67874781000000,485.0,4096,65,64,8485457,8485520,67884213920,67884717920,254,42184,0,1,1,0
67874812000000,67875296000000,484.0,4096,66,64,8485521,8485584,67884725918,67885229920,3638,42250,0,1,1,0
67875765000000,67875812000000,47.0,4096,66,65,8485585,8485649,67885237920,67885749920,375,42316,0,1,1,0
67875859000000,67876328000000,469.0,4096,66,66,8485650,8485715,67885757920,67886277920,249,42382,0,1,1,0
67876375000000,67876843000000,468.0,4096,65,64,8485716,8485779,67886285917,67886789917,220,42447,0,1,1,0
67876875000000,67877375000000,500.0,4096,66,65,8485780,8485844,67886797916,67887309920,388,42513,0,1,1,0
67877421000000,67877890000000,469.0,4096,66,65,8485845,8485909,67887317917,67887829920,244,42579,0,1,1,0
67877921000000,67878421000000,500.0,4096,66,66,8485910,8485975,67887837917,67888357920,254,42645,0,1,1,0
67878453000000,67878953000000,500.0,4096,67,66,8485976,8486041,67888365920,67888885920,302,42712,0,1,1,0
67878984000000,67879468000000,484.0,4096,67,66,8486042,8486107,67888893920,67889413920,251,42779,0,1,1,0
67879515000000,67880000000000,485.0,4096,67,65,8486108,8486172,67889421920,67889933920,367,42846,0,1,1,0
67880046000000,67880531000000,485.0,4096,66,66,8486173,8486238,67889941919,67890461916,196,42912,0,1,1,0
67880546000000,67881046000000,500.0,4096,67,66,8486239,8486304,67890469921,67890989920,567,42979,0,1,1,0
67881125000000,67881578000000,453.0,4096,66,65,8486305,8486369,67890997921,67891509920,261,43045,0,1,1,0
67881609000000,67882093000000,484.0,4096,67,66,8486370,8486435,67891517921,67892037918,538,43112,0,1,1,0
67882171000000,67882625000000,454.0,4096,66,65,8486436,8486500,67892045920,67892557921,333,43178,0,1,1,0
67882656000000,67883140000000,484.0,4096,67,66,8486501,8486566,67892565917,67893085921,253,43245,0,1,1,0
67883171000000,67883671000000,500.0,4096,66,65,8486567,8486631,67893093918,67893605916,251,43311,0,1,1,0
67883703000000,67884187000000,484.0,4096,67,66,8486632,8486697,67893613917,67894133916,248,43378,0,1,1,0
67884234000000,67884718000000,484.0,4096,66,66,8486698,8486763,67894141918,67894661918,256,43444,0,1,1,0
67884765000000,67885250000000,485.0,4096,67,65,8486764,8486828,67894669918,67895181920,200,43511,0,1,1,0
67885265000000,67885765000000,500.0,4096,67,66,8486829,8486894,67895189921,67895709920,358,43578,0,1,1,0
67885812000000,67886296000000,484.0,4096,66,65,8486895,8486959,67895717920,67896229919,242,43644,0,1,1,0
67886328000000,67886828000000,500.0,4096,67,67,8486960,8487026,67896237920,67896765920,208,43711,0,1,1,0
67886859000000,67887359000000,500.0,4096,67,66,8487027,8487092,67896773920,67897293921,320,43778,0,1,1,0
67887406000000,67887890000000,484.0,4096,67,66,8487093,8487158,67897301920,67897821920,181,43845,0,1,1,0
67887906000000,67888421000000,515.0,4096,67,66,8487159,8487224,67897829920,67898349917,269,43912,0,1,1,0
67888453000000,67888937000000,484.0,4096,67,66,8487225,8487290,67898357920,67898877920,255,43979,0,1,1,0
67888968000000,67889468000000,500.0,4096,67,66,8487291,8487356,67898885920,67899405920,292,44046,0,1,1,0
67889500000000,67890000000000,500.0,4096,67,66,8487357,8487422,67899413920,67899933920,246,44113,0,1,1,0
67890031000000,67890515000000,484.0,4096,67,66,8487423,8487488,67899941917,67900461918,205,44180,0,1,1,0
67890546000000,67891046000000,500.0,4096,67,66,8487489,8487554,67900469920,67900989920,274,44247,0,1,1,0
67891078000000,67891578000000,500.0,4096,67,66,8487555,8487620,67900997917,67901517918,429,44314,0,1,1,0
67891640000000,67892093000000,453.0,4096,66,65,8487621,8487685,67901525917,67902037920,447,44380,0,1,1,0
67892156000000,67892625000000,469.0,4096,65,65,8487686,8487750,67902045917,67902557920,628,44445,0,1,1,0
67892703000000,67893140000000,437.0,4096,65,64,8487751,8487814,67902565918,67903069920,186,44510,0,1,1,0
67893156000000,67893656000000,500.0,4096,67,66,8487815,8487880,67903077920,67903597920,341,44577,0,1,1,0
67893703000000,67894171000000,468.0,4096,65,64,8487881,8487944,67903605917,67904109920,203,44642,0,1,1,0
67894203000000,67894703000000,500.0,4096,65,65,8487945,8488009,67904117916,67904629918,503,44707,0,1,1,0
67894765000000,67895203000000,438.0,4096,66,64,8488010,8488073,67904637921,67905141920,4519,44773,0,1,1,0
67895781000000,67895781000000,0.0,4096,66,65,8488074,8488138,67905149920,67905661919,738,44839,0,1,1,0
67895812000000,67896234000000,422.0,4096,65,64,8488139,8488202,67905669916,67906173920,305,44904,0,1,1,0
67896281000000,67896765000000,484.0,4096,65,65,8488203,8488267,67906181918,67906693918,204,44969,0,1,1,0
67896781000000,67897281000000,500.0,4096,66,65,8488268,8488332,67906701916,67907213921,393,45035,0,1,1,0
67897328000000,67897796000000,468.0,4096,65,64,8488333,8488396,67907221918,67907725920,210,45100,0,1,1,0
67897812000000,67898312000000,500.0,4096,66,65,8488397,8488461,67907733920,67908245921,274,45166,0,1,1,0
67898343000000,67898828000000,485.0,4096,67,66,8488462,8488527,67908253920,67908773920,302,45233,0,1,1,0
67898875000000,67899359000000,484.0,4096,66,66,8488528,8488593,67908781920,67909301917,165,45299,0,1,1,0
67899390000000,67899890000000,500.0,4096,66,65,8488594,8488658,67909309920,67909821920,264,45365,0,1,1,0
67899921000000,67900406000000,485.0,4096,68,66,8488659,8488724,67909829916,67910349920,242,45433,0,1,1,0
67900437000000,67900937000000,500.0,4096,66,65,8488725,8488789,67910357920,67910869920,276,45499,0,1,1,0
67900968000000,67901468000000,500.0,4096,66,66,8488790,8488855,67910877920,67911397917,200,45565,0,1,1,0
67901484000000,67901984000000,500.0,4096,67,66,8488856,8488921,67911405921,67911925920,325,45632,0,1,1,0
67902031000000,67902500000000,469.0,4096,67,65,8488922,8488986,67911933920,67912445920,395,45699,0,1,1,0
67902562000000,67903031000000,469.0,4096,66,66,8488987,8489052,67912453920,67912973920,242,45765,0,1,1,0
67903062000000,67903578000000,516.0,4096,68,67,8489053,8489119,67912981917,67913509920,257,45833,0,1,1,0
67903609000000,67904078000000,469.0,4096,65,64,8489120,8489183,67913517920,67914021921,186,45898,0,1,1,0
67904125000000,67904609000000,484.0,4096,66,66,8489184,8489249,67914029919,67914549917,390,45964,0,1,1,0
67904656000000,67905125000000,469.0,4096,66,64,8489250,8489313,67914557917,67915061917,357,46030,0,1,1,0
67905171000000,67905640000000,469.0,4096,66,65,8489314,8489378,67915069917,67915581917,358,46096,0,1,1,0
67905687000000,67906171000000,484.0,4096,66,65,8489379,8489443,67915589917,67916101921,175,46162,0,1,1,0
67906187000000,67906703000000,516.0,4096,67,67,8489444,8489510,67916109920,67916637920,259,46229,0,1,1,0
67906734000000,67907218000000,484.0,4096,66,65,8489511,8489575,67916645920,67917157921,378,46295,0,1,1,0
67907265000000,67907734000000,469.0,4096,66,65,8489576,8489640,67917165921,67917677916,187,46361,0,1,1,0
67907765000000,67908265000000,500.0,4096,66,66,8489641,8489706,67917685917,67918205921,317,46427,0,1,1,0
67908296000000,67908796000000,500.0,4096,68,67,8489707,8489773,67918213920,67918741917,215,46495,0,1,1,0
67908828000000,67909328000000,500.0,4096,66,65,8489774,8489838,67918749920,67919261918,259,46561,0,1,1,0
67909359000000,67909859000000,500.0,4096,67,67,8489839,8489905,67919269920,67919797920,256,46628,0,1,1,0
67909890000000,67910390000000,500.0,4096,68,66,8489906,8489971,67919805920,67920325921,223,46696,0,1,1,0
67910421000000,67910921000000,500.0,4096,67,66,8489972,8490037,67920333919,67920853921,296,46763,0,1,1,0
67910953000000,67911453000000,500.0,4096,66,66,8490038,8490103,67920861918,67921381918,337,46829,0,1,1,0
67911484000000,67911968000000,484.0,4096,67,66,8490104,8490169,67921389921,67921909920,256,46896,0,1,1,0
67912015000000,67912515000000,500.0,4096,68,67,8490170,8490236,67921917920,67922445920,308,46964,0,1,1,0
67912546000000,67913046000000,500.0,4096,67,66,8490237,8490302,67922453916,67922973920,261,47031,0,1,1,0
67913078000000,67913578000000,500.0,4096,67,67,8490303,8490369,67922981920,67923509920,534,47098,0,1,1,0
67913640000000,67914109000000,469.0,4096,67,66,8490370,8490435,67923517920,67924037920,419,47165,0,1,1,0
67914156000000,67914625000000,469.0,4096,67,66,8490436,8490501,67924045916,67924565917,194,47232,0,1,1,0
67914656000000,67915156000000,500.0,4096,67,66,8490502,8490567,67924573917,67925093918,246,47299,0,1,1,0
67915187000000,67915687000000,500.0,4096,68,67,8490568,8490634,67925101920,67925629920,3891,47367,0,1,1,0
67916203000000,67916218000000,15.0,4096,67,66,8490635,8490700,67925637916,67926157920,283,47434,0,1,1,0
67916265000000,67916750000000,485.0,4096,67,67,8490701,8490767,67926165920,67926693920,305,47501,0,1,1,0
67916796000000,67917281000000,485.0,4096,67,66,8490768,8490833,67926701921,67927221920,274,47568,0,1,1,0
67917328000000,67917812000000,484.0,4096,68,67,8490834,8490900,67927229920,67927757920,337,47636,0,1,1,0
67917859000000,67918343000000,484.0,4096,66,65,8490901,8490965,67927765920,67928277920,168,47702,0,1,1,0
67918359000000,67918875000000,516.0,4096,67,67,8490966,8491032,67928285917,67928813918,270,47769,0,1,1,0
67918921000000,67919406000000,485.0,4096,67,66,8491033,8491098,67928821917,67929341920,246,47836,0,1,1,0
67919437000000,67919937000000,500.0,4096,67,66,8491099,8491164,67929349920,67929869920,198,47903,0,1,1,0
67919953000000,67920453000000,500.0,4096,67,66,8491165,8491230,67929877916,67930397920,288,47970,0,1,1,0
67920500000000,67920984000000,484.0,4096,67,66,8491231,8491296,67930405920,67930925920,236,48037,0,1,1,0
67921015000000,67921515000000,500.0,4096,66,65,8491297,8491361,67930933920,67931445921,251,48103,0,1,1,0
67921546000000,67922046000000,500.0,4096,67,67,8491362,8491428,67931453921,67931981920,291,48170,0,1,1,0
67922078000000,67922578000000,500.0,4096,68,66,8491429,8491494,67931989920,67932509918,235,48238,0,1,1,0
67922609000000,67923109000000,500.0,4096,67,66,8491495,8491560,67932517918,67933037920,367,48305,0,1,1,0
67923156000000,67923656000000,500.0,4096,67,67,8491561,8491629,67933045917,67933589920,747,48372,0,2,2,2
67923734000000,67924187000000,453.0,4096,66,65,8491630,8491697,67933597920,67934133920,769,48438,0,3,3,5
67924312000000,67924750000000,438.0,4096,66,65,8491698,8491765,67934141920,67934677920,304,48504,1,3,4,8
67924781000000,67925265000000,484.0,4096,67,65,8491766,8491830,67934685920,67935197920,206,48571,1,3,4,8
67925281000000,67925796000000,515.0,4096,67,67,8491831,8491897,67935205921,67935733919,278,48638,1,3,4,8
67925828000000,67926312000000,484.0,4096,65,64,8491898,8491961,67935741920,67936245917,187,48703,1,3,4,8
67926343000000,67926828000000,485.0,4096,66,65,8491962,8492026,67936253920,67936765920,335,48769,1,3,4,8
67926875000000,67927343000000,468.0,4096,65,65,8492027,8492091,67936773917,67937285917,251,48834,1,3,4,8
67927390000000,67927875000000,485.0,4096,67,66,8492092,8492157,67937293917,67937813921,271,48901,1,3,4,8
67927906000000,67928390000000,484.0,4096,66,65,8492158,8492222,67937821920,67938333920,262,48967,1,3,4,8
67928437000000,67928906000000,469.0,4096,65,64,8492223,8492286,67938341921,67938845917,223,49032,1,3,4,8
67928937000000,67929437000000,500.0,4096,66,66,8492287,8492352,67938853917,67939373920,360,49098,1,3,4,8
67929484000000,67929953000000,469.0,4096,66,65,8492353,8492417,67939381921,67939893917,226,49164,1,3,4,8
67929984000000,67930484000000,500.0,4096,67,65,8492418,8492482,67939901921,67940413920,291,49231,1,3,4,8
67930515000000,67931000000000,485.0,4096,66,65,8492483,8492547,67940421918,67940933920,168,49297,1,3,4,8
67931015000000,67931515000000,500.0,4096,66,66,8492548,8492613,67940941917,67941461920,269,49363,1,3,4,8
67931562000000,67932046000000,484.0,4096,66,65,8492614,8492678,67941469920,67941981918,244,49429,1,3,4,8
67932078000000,67932562000000,484.0,4096,66,65,8492679,8492743,67941989917,67942501917,401,49495,1,3,4,8
67932609000000,67933093000000,484.0,4096,65,65,8492744,8492808,67942509921,67943021917,266,49560,1,3,4,8
67933125000000,67933609000000,484.0,4096,67,66,8492809,8492874,67943029917,67943549921,301,49627,1,3,4,8
67933656000000,67934140000000,484.0,4096,67,66,8492875,8492940,67943557917,67944077920,354,49694,1,3,4,8
67934187000000,67934671000000,484.0,4096,67,66,8492941,8493006,67944085920,67944605920,395,49761,1,3,4,8
67934718000000,67935203000000,485.0,4096,67,66,8493007,8493072,67944613920,67945133920,317,49828,1,3,4,8
67935234000000,67935734000000,500.0,4096,67,66,8493073,8493138,67945141920,67945661921,208,49895,1,3,4,8
67935750000000,67936250000000,500.0,4096,66,65,8493139,8493203,67945669917,67946181920,4650,49961,1,3,4,8
67936828000000,67936828000000,0.0,4096,66,65,8493204,8493268,67946189920,67946701916,995,50027,1,3,4,8
67936890000000,67937281000000,391.0,4096,65,65,8493269,8493333,67946709917,67947221920,307,50092,1,3,4,8
67937312000000,67937812000000,500.0,4096,66,65,8493334,8493398,67947229920,67947741917,332,50158,1,3,4,8
67937843000000,67938328000000,485.0,4096,66,65,8493399,8493463,67947749917,67948261920,191,50224,1,3,4,8
67938343000000,67938843000000,500.0,4096,65,64,8493464,8493527,67948269920,67948773920,317,50289,1,3,4,8
67938875000000,67939359000000,484.0,4096,66,66,8493528,8493593,67948781917,67949301916,211,50355,1,3,4,8
67939390000000,67939890000000,500.0,4096,66,65,8493594,8493658,67949309920,67949821920,344,50421,1,3,4,8
67939921000000,67940406000000,485.0,4096,66,64,8493659,8493722,67949829920,67950333920,157,50487,1,3,4,8
67940421000000,67940937000000,516.0,4096,67,67,8493723,8493789,67950341921,67950869917,312,50554,1,3,4,8
67940968000000,67941453000000,485.0,4096,66,65,8493790,8493854,67950877920,67951389917,294,50620,1,3,4,8
67941500000000,67941984000000,484.0,4096,67,66,8493855,8493920,67951397918,67951917921,198,50687,1,3,4,8
67942000000000,67942500000000,500.0,4096,67,65,8493921,8493985,67951925916,67952437918,330,50754,1,3,4,8
67942546000000,67943031000000,485.0,4096,66,66,8493986,8494051,67952445920,67952965921,159,50820,1,3,4,8
67943046000000,67943562000000,516.0,4096,67,66,8494052,8494117,67952973920,67953493921,376,50887,1,3,4,8
67943609000000,67944078000000,469.0,4096,67,66,8494118,8494183,67953501920,67954021920,409,50954,1,3,4,8
67944140000000,67944609000000,469.0,4096,66,66,8494184,8494249,67954029917,67954549917,252,51020,1,3,4,8
67944656000000,67945140000000,484.0,4096,67,65,8494250,8494314,67954557918,67955069920,290,51087,1,3,4,8
67945171000000,67945656000000,485.0,4096,67,66,8494315,8494380,67955077920,67955597918,226,51154,1,3,4,8
67945687000000,67946187000000,500.0,4096,67,66,8494381,8494446,67955605921,67956125917,310,51221,1,3,4,8
67946234000000,67946718000000,484.0,4096,66,66,8494447,8494512,67956133917,67956653917,193,51287,1,3,4,8
67946750000000,67947250000000,500.0,4096,67,66,8494513,8494578,67956661920,67957181920,396,51354,1,3,4,8
67947296000000,67947781000000,485.0,4096,67,66,8494579,8494644,67957189921,67957709920,309,51421,1,3,4,8
67947812000000,67948312000000,500.0,4096,67,67,8494645,8494711,67957717920,67958245920,250,51488,1,3,4,8
67948343000000,67948828000000,485.0,4096,67,66,8494712,8494777,67958253921,67958773920,267,51555,1,3,4,8
67948875000000,67949359000000,484.0,4096,67,66,8494778,8494843,67958781920,67959301916,231,51622,1,3,4,8
67949390000000,67949890000000,500.0,4096,66,66,8494844,8494909,67959309917,67959829917,272,51688,1,3,4,8
67949921000000,67950421000000,500.0,4096,67,65,8494910,8494974,67959837916,67960349917,255,51755,1,3,4,8
67950453000000,67950937000000,484.0,4096,67,66,8494975,8495040,67960357920,67960877920,263,51822,1,3,4,8
67950984000000,67951468000000,484.0,4096,67,67,8495041,8495107,67960885920,67961413920,310,51889,1,3,4,8
67951515000000,67952015000000,500.0,4096,68,67,8495108,8495174,67961421918,67961949920,271,51957,1,3,4,8
67952046000000,67952546000000,500.0,4096,67,66,8495175,8495240,67961957920,67962477920,295,52024,1,3,4,8
67952578000000,67953062000000,484.0,4096,66,65,8495241,8495305,67962485916,67962997920,277,52090,1,3,4,8
67953093000000,67953593000000,500.0,4096,67,67,8495306,8495372,67963005917,67963533921,319,52157,1,3,4,8
67953640000000,67954125000000,485.0,4096,67,66,8495373,8495438,67963541920,67964061920,360,52224,1,3,4,8
67954171000000,67954640000000,469.0,4096,66,65,8495439,8495503,67964069918,67964581918,230,52290,1,3,4,8
67954671000000,67955171000000,500.0,4096,67,66,8495504,8495569,67964589918,67965109920,291,52357,1,3,4,8
67955218000000,67955703000000,485.0,4096,67,66,8495570,8495635,67965117919,67965637920,271,52424,1,3,4,8
67955734000000,67956234000000,500.0,4096,67,66,8495636,8495701,67965645917,67966165916,213,52491,1,3,4,8
67956250000000,67956750000000,500.0,4096,67,66,8495702,8495767,67966173920,67966693920,4357,52558,1,3,4,8
67957328000000,67957328000000,0.0,4096,66,66,8495768,8495833,67966701918,67967221917,674,52624,1,3,4,8
67957375000000,67957812000000,437.0,4096,67,66,8495834,8495899,67967229920,67967749920,268,52691,1,3,4,8
67957843000000,67958343000000,500.0,4096,67,66,8495900,8495965,67967757917,67968277920,336,52758,1,3,4,8
67958375000000,67958859000000,484.0,4096,66,65,8495966,8496030,67968285920,67968797917,305,52824,1,3,4,8
67958906000000,67959390000000,484.0,4096,67,67,8496031,8496097,67968805920,67969333916,309,52891,1,3,4,8
67959437000000,67959921000000,484.0,4096,66,65,8496098,8496162,67969341920,67969853921,248,52957,1,3,4,8
67959953000000,67960437000000,484.0,4096,67,65,8496163,8496227,67969861920,67970373917,285,53024,1,3,4,8
67960484000000,67960968000000,484.0,4096,67,66,8496228,8496293,67970381920,67970901916,267,53091,1,3,4,8
67961000000000,67961500000000,500.0,4096,67,67,8496294,8496360,67970909918,67971437917,334,53158,1,3,4,8
67961546000000,67962015000000,469.0,4096,66,65,8496361,8496425,67971445918,67971957920,261,53224,1,3,4,8
67962062000000,67962546000000,484.0,4096,67,65,8496426,8496490,67971965921,67972477918,258,53291,1,3,4,8
67962578000000,67963062000000,484.0,4096,65,64,8496491,8496554,67972485920,67972989917,351,53356,1,3,4,8
67963093000000,67963578000000,485.0,4096,66,66,8496555,8496620,67972997921,67973517917,396,53422,1,3,4,8
67963625000000,67964093000000,468.0,4096,65,64,8496621,8496684,67973525920,67974029916,357,53487,1,3,4,8
67964140000000,67964609000000,469.0,4096,66,65,8496685,8496749,67974037920,67974549920,336,53553,1,3,4,8
67964656000000,67965140000000,484.0,4096,65,64,8496750,8496813,67974557917,67975061916,469,53618,1,3,4,8
67965187000000,67965640000000,453.0,4096,66,65,8496814,8496878,67975069920,67975581917,259,53684,1,3,4,8
67965671000000,67966156000000,485.0,4096,66,65,8496879,8496943,67975589917,67976101920,312,53750,1,3,4,8
67966203000000,67966687000000,484.0,4096,65,64,8496944,8497007,67976109920,67976613918,232,53815,1,3,4,8
67966703000000,67967203000000,500.0,4096,66,66,8497008,8497073,67976621916,67977141917,344,53881,1,3,4,8
67967250000000,67967718000000,468.0,4096,66,65,8497074,8497138,67977149917,67977661921,301,53947,1,3,4,8
67967765000000,67968250000000,485.0,4096,66,65,8497139,8497203,67977669920,67978181918,307,54013,1,3,4,8
67968281000000,67968750000000,469.0,4096,65,64,8497204,8497267,67978189916,67978693917,282,54078,1,3,4,8
67968796000000,67969281000000,485.0,4096,65,65,8497268,8497332,67978701920,67979213920,334,54143,1,3,4,8
67969312000000,67969796000000,484.0,4096,66,65,8497333,8497397,67979221917,67979733919,301,54209,1,3,4,8
67969828000000,67970312000000,484.0,4096,67,65,8497398,8497462,67979741920,67980253920,244,54276,1,3,4,8
67970343000000,67970828000000,485.0,4096,66,65,8497463,8497527,67980261916,67980773920,312,54342,1,3,4,8
67970875000000,67971375000000,500.0,4096,66,66,8497528,8497593,67980781920,67981301917,333,54408,1,3,4,8
67971406000000,67971890000000,484.0,4096,67,66,8497594,8497659,67981309920,67981829921,210,54475,1,3,4,8
67971921000000,67972421000000,500.0,4096,66,65,8497660,8497724,67981837920,67982349920,366,54541,1,3,4,8
67972453000000,67972937000000,484.0,4096,67,66,8497725,8497790,67982357916,67982877920,208,54608,1,3,4,8
67972968000000,67973468000000,500.0,4096,66,66,8497791,8497856,67982885920,67983405920,306,54674,1,3,4,8
67973500000000,67973984000000,484.0,4096,66,65,8497857,8497921,67983413920,67983925916,246,54740,1,3,4,8
67974031000000,67974515000000,484.0,4096,67,66,8497922,8497987,67983933920,67984453921,442,54807,1,3,4,8
67974578000000,67975046000000,468.0,4096,67,65,8497988,8498052,67984461920,67984973916,285,54874,1,3,4,8
67975078000000,67975578000000,500.0,4096,67,67,8498053,8498119,67984981917,67985509920,221,54941,1,3,4,8
67975609000000,67976093000000,484.0,4096,67,66,8498120,8498185,67985517916,67986037920,271,55008,1,3,4,8
67976140000000,67976625000000,485.0,4096,66,65,8498186,8498250,67986045918,67986557920,334,55074,1,3,4,8
67976671000000,67977140000000,469.0,4096,67,66,8498251,8498316,67986565921,67987085917,4408,55141,1,3,4,8
67977718000000,67977718000000,0.0,4096,66,66,8498317,8498382,67987093920,67987613916,619,55207,1,3,4,8
67977750000000,67978203000000,453.0,4096,67,66,8498383,8498448,67987621920,67988141921,272,55274,1,3,4,8
67978234000000,67978734000000,500.0,4096,66,65,8498449,8498513,67988149920,67988661920,268,55340,1,3,4,8
67978765000000,67979265000000,500.0,4096,67,67,8498514,8498580,67988669917,67989197920,206,55407,1,3,4,8
67979281000000,67979781000000,500.0,4096,66,65,8498581,8498645,67989205917,67989717917,336,55473,1,3,4,8
67979828000000,67980296000000,468.0,4096,67,65,8498646,8498710,67989725917,67990237920,365,55540,1,3,4,8
67980343000000,67980828000000,485.0,4096,66,66,8498711,8498776,67990245920,67990765920,299,55606,1,3,4,8
67980859000000,67981359000000,500.0,4096,67,66,8498777,8498842,67990773920,67991293921,273,55673,1,3,4,8
67981390000000,67981875000000,485.0,4096,67,66,8498843,8498908,67991301920,67991821921,186,55740,1,3,4,8
67981906000000,67982406000000,500.0,4096,66,64,8498909,8498972,67991829917,67992333920,377,55806,1,3,4,8
67982453000000,67982937000000,484.0,4096,67,67,8498973,8499039,67992341921,67992869920,236,55873,1,3,4,8
67982968000000,67983453000000,485.0,4096,66,65,8499040,8499104,67992877916,67993389920,317,55939,1,3,4,8
67983500000000,67983984000000,484.0,4096,67,66,8499105,8499170,67993397921,67993917921,287,56006,1,3,4,8
67984015000000,67984515000000,500.0,4096,66,66,8499171,8499236,67993925921,67994445921,202,56072,1,3,4,8
67984531000000,67985031000000,500.0,4096,67,65,8499237,8499301,67994453916,67994965918,256,56139,1,3,4,8
67985062000000,67985562000000,500.0,4096,67,66,8499302,8499367,67994973920,67995493917,202,56206,1,3,4,8
67985578000000,67986078000000,500.0,4096,66,65,8499368,8499432,67995501920,67996013918,369,56272,1,3,4,8
67986125000000,67986609000000,484.0,4096,67,67,8499433,8499499,67996021920,67996549920,371,56339,1,3,4,8
67986656000000,67987140000000,484.0,4096,66,65,8499500,8499564,67996557919,67997069917,501,56405,1,3,4,8
67987203000000,67987656000000,453.0,4096,66,65,8499565,8499629,67997077920,67997589920,257,56471,1,3,4,8
67987687000000,67988171000000,484.0,4096,66,65,8499630,8499694,67997597920,67998109920,195,56537,1,3,4,8
67988203000000,67988687000000,484.0,4096,65,64,8499695,8499758,67998117921,67998621920,295,56602,1,3,4,8
67988718000000,67989203000000,485.0,4096,65,65,8499759,8499823,67998629920,67999141921,190,56667,1,3,4,8
67989234000000,67989734000000,500.0,4096,66,65,8499824,8499888,67999149918,67999661917,280,56733,1,3,4,8
67989765000000,67990234000000,469.0,4096,66,64,8499889,8499952,67999669920,68000173920,202,56799,1,3,4,8
67990265000000,67990750000000,485.0,4096,66,65,8499953,8500017,68000181920,68000693916,359,56865,1,3,4,8
67990796000000,67991281000000,485.0,4096,65,65,8500018,8500082,68000701918,68001213920,261,56930,1,3,4,8
67991312000000,67991796000000,484.0,4096,66,65,8500083,8500147,68001221918,68001733919,294,56996,1,3,4,8
67991828000000,67992312000000,484.0,4096,66,65,8500148,8500212,68001741921,68002253917,215,57062,1,3,4,8
67992343000000,67992843000000,500.0,4096,67,67,8500213,8500279,68002261917,68002789920,324,57129,1,3,4,8
67992890000000,67993375000000,485.0,4096,67,66,8500280,8500345,68002797917,68003317920,318,57196,1,3,4,8
67993421000000,67993906000000,485.0,4096,67,66,8500346,8500411,68003325920,68003845917,245,57263,1,3,4,8
67993937000000,67994437000000,500.0,4096,67,66,8500412,8500477,68003853920,68004373920,372,57330,1,3,4,8
67994484000000,67994968000000,484.0,4096,67,67,8500478,8500544,68004381920,68004909916,284,57397,1,3,4,8
67995000000000,67995500000000,500.0,4096,68,66,8500545,8500610,68004917921,68005437918,185,57465,1,3,4,8
67995515000000,67996015000000,500.0,4096,66,65,8500611,8500675,68005445920,68005957919,306,57531,1,3,4,8
67996062000000,67996546000000,484.0,4096,67,66,8500676,8500741,68005965920,68006485920,192,57598,1,3,4,8
67996578000000,67997078000000,500.0,4096,66,66,8500742,8500807,68006493916,68007013920,395,57664,1,3,4,8
67997125000000,67997609000000,484.0,4096,67,66,8500808,8500873,68007021917,68007541920,4802,57731,1,3,4,8
67998218000000,67998218000000,0.0,4096,66,65,8500874,8500938,68007549920,68008061920,1026,57797,1,3,4,8
67998250000000,67998656000000,406.0,4096,66,66,8500939,8501004,68008069917,68008589920,408,57863,1,3,4,8
67998703000000,67999171000000,468.0,4096,65,64,8501005,8501068,68008597918,68009101916,292,57928,1,3,4,8
67999203000000,67999687000000,484.0,4096,66,65,8501069,8501133,68009109920,68009621916,257,57994,1,3,4,8
67999718000000,68000203000000,485.0,4096,66,64,8501134,8501197,68009629920,68010133920,253,58060,1,3,4,8
68000234000000,68000718000000,484.0,4096,66,65,8501198,8501262,68010141920,68010653918,271,58126,1,3,4,8
68000750000000,68001234000000,484.0,4096,65,65,8501263,8501327,68010661916,68011173920,265,58191,1,3,4,8
68001281000000,68001765000000,484.0,4096,66,65,8501328,8501392,68011181917,68011693920,264,58257,1,3,4,8
68001796000000,68002281000000,485.0,4096,66,65,8501393,8501457,68011701917,68012213920,421,58323,1,3,4,8
68002328000000,68002812000000,484.0,4096,67,66,8501458,8501523,68012221920,68012741917,234,58390,1,3,4,8
68002843000000,68003328000000,485.0,4096,67,66,8501524,8501589,68012749917,68013269920,358,58457,1,3,4,8
68003375000000,68003859000000,484.0,4096,66,65,8501590,8501654,68013277921,68013789917,193,58523,1,3,4,8
68003875000000,68004390000000,515.0,4096,67,67,8501655,8501721,68013797920,68014325920,267,58590,1,3,4,8
68004421000000,68004906000000,485.0,4096,66,65,8501722,8501786,68014333920,68014845921,260,58656,1,3,4,8
68004953000000,68005437000000,484.0,4096,68,66,8501787,8501852,68014853917,68015373920,271,58724,1,3,4,8
68005468000000,68005968000000,500.0,4096,66,66,8501853,8501918,68015381920,68015901921,282,58790,1,3,4,8
68006000000000,68006484000000,484.0,4096,67,66,8501919,8501984,68015909917,68016429920,198,58857,1,3,4,8
68006515000000,68007015000000,500.0,4096,67,66,8501985,8502050,68016437920,68016957921,270,58924,1,3,4,8
68007046000000,68007546000000,500.0,4096,66,65,8502051,8502115,68016965921,68017477920,358,58990,1,3,4,8
68007593000000,68008078000000,485.0,4096,67,67,8502116,8502182,68017485920,68018013921,228,59057,1,3,4,8
68008109000000,68008609000000,500.0,4096,67,66,8502183,8502248,68018021919,68018541920,356,59124,1,3,4,8
68008656000000,68009125000000,469.0,4096,66,65,8502249,8502313,68018549921,68019061920,350,59190,1,3,4,8
68009171000000,68009656000000,485.0,4096,67,67,8502314,8502380,68019069920,68019597921,302,59257,1,3,4,8
68009703000000,68010187000000,484.0,4096,67,65,8502381,8502445,68019605916,68020117917,237,59324,1,3,4,8
68010203000000,68010703000000,500.0,4096,67,66,8502446,8502511,68020125921,68020645920,344,59391,1,3,4,8
68010750000000,68011234000000,484.0,4096,66,66,8502512,8502577,68020653920,68021173920,272,59457,1,3,4,8
68011281000000,68011750000000,469.0,4096,66,65,8502578,8502642,68021181920,68021693919,224,59523,1,3,4,8
68011781000000,68012281000000,500.0,4096,65,65,8502643,8502707,68021701920,68022213920,365,59588,1,3,4,8
68012312000000,68012796000000,484.0,4096,66,65,8502708,8502772,68022221918,68022733920,241,59654,1,3,4,8
68012828000000,68013312000000,484.0,4096,66,65,8502773,8502837,68022741918,68023253920,277,59720,1,3,4,8
68013359000000,68013843000000,484.0,4096,65,65,8502838,8502902,68023261919,68023773920,253,59785,1,3,4,8
68013875000000,68014359000000,484.0,4096,66,65,8502903,8502967,68023781920,68024293921,185,59851,1,3,4,8
68014375000000,68014875000000,500.0,4096,66,65,8502968,8503032,68024301916,68024813920,297,59917,1,3,4,8
68014906000000,68015390000000,484.0,4096,66,65,8503033,8503097,68024821917,68025333920,173,59983,1,3,4,8
68015421000000,68015921000000,500.0,4096,66,65,8503098,8503162,68025341917,68025853920,339,60049,1,3,4,8
68015968000000,68016453000000,485.0,4096,66,66,8503163,8503228,68025861920,68026381918,166,60115,1,3,4,8
68016468000000,68016968000000,500.0,4096,67,66,8503229,8503294,68026389920,68026909918,266,60182,1,3,4,8
68017000000000,68017500000000,500.0,4096,67,66,8503295,8503360,68026917917,68027437916,4701,60249,1,3,4,8
68018109000000,68018109000000,0.0,4096,66,66,8503361,8503426,68027445920,68027965920,882,60315,1,3,4,8
68018140000000,68018562000000,422.0,4096,67,66,8503427,8503492,68027973920,68028493920,263,60382,1,3,4,8
68018593000000,68019078000000,485.0,4096,66,65,8503493,8503557,68028501920,68029013918,322,60448,1,3,4,8
68019125000000,68019609000000,484.0,4096,66,66,8503558,8503623,68029021920,68029541916,435,60514,1,3,4,8
68019671000000,68020125000000,454.0,4096,68,66,8503624,8503689,68029549917,68030069920,390,60582,1,3,4,8
68020187000000,68020656000000,469.0,4096,66,65,8503690,8503754,68030077920,68030589920,212,60648,1,3,4,8
68020687000000,68021187000000,500.0,4096,66,66,8503755,8503820,68030597917,68031117921,299,60714,1,3,4,8
68021218000000,68021703000000,485.0,4096,67,66,8503821,8503886,68031125916,68031645918,183,60781,1,3,4,8
68021734000000,68022234000000,500.0,4096,67,66,8503887,8503952,68031653917,68032173918,370,60848,1,3,4,8
68022281000000,68022750000000,469.0,4096,67,65,8503953,8504017,68032181918,68032693918,258,60915,1,3,4,8
68022796000000,68023281000000,485.0,4096,66,66,8504018,8504083,68032701920,68033221920,264,60981,1,3,4,8
68023328000000,68023812000000,484.0,4096,67,66,8504084,8504149,68033229921,68033749920,256,61048,1,3,4,8
68023843000000,68024328000000,485.0,4096,67,66,8504150,8504215,68033757920,68034277920,186,61115,1,3,4,8
68024359000000,68024875000000,516.0,4096,66,66,8504216,8504281,68034285920,68034805919,285,61181,1,3,4,8
68024906000000,68025390000000,484.0,4096,67,65,8504282,8504346,68034813920,68035325920,194,61248,1,3,4,8
68025421000000,68025921000000,500.0,4096,67,66,8504347,8504412,68035333918,68035853920,279,61315,1,3,4,8
68025953000000,68026437000000,484.0,4096,66,66,8504413,8504478,68035861917,68036381921,266,61381,1,3,4,8
68026484000000,68026968000000,484.0,4096,66,65,8504479,8504543,68036389920,68036901917,250,61447,1,3,4,8
68027000000000,68027500000000,500.0,4096,67,66,8504544,8504609,68036909919,68037429920,343,61514,1,3,4,8
68027531000000,68028031000000,500.0,4096,66,66,8504610,8504675,68037437916,68037957920,207,61580,1,3,4,8
68028046000000,68028546000000,500.0,4096,67,66,8504676,8504741,68037965920,68038485921,299,61647,1,3,4,8
68028593000000,68029078000000,485.0,4096,66,66,8504742,8504807,68038493916,68039013917,334,61713,1,3,4,8
68029109000000,68029593000000,484.0,4096,66,65,8504808,8504872,68039021918,68039533917,162,61779,1,3,4,8
68029625000000,68030125000000,500.0,4096,67,65,8504873,8504937,68039541918,68040053919,386,61846,1,3,4,8
68030171000000,68030640000000,469.0,4096,67,66,8504938,8505003,68040061917,68040581920,298,61913,1,3,4,8
68030687000000,68031171000000,484.0,4096,66,66,8505004,8505069,68040589920,68041109917,393,61979,1,3,4,8
68031218000000,68031703000000,485.0,4096,67,66,8505070,8505135,68041117917,68041637920,204,62046,1,3,4,8
68031734000000,68032234000000,500.0,4096,67,66,8505136,8505201,68041645917,68042165920,316,62113,1,3,4,8
68032265000000,68032765000000,500.0,4096,66,66,8505202,8505267,68042173920,68042693920,273,62179,1,3,4,8
68032796000000,68033281000000,485.0,4096,67,66,8505268,8505333,68042701917,68043221918,193,62246,1,3,4,8
68033312000000,68033812000000,500.0,4096,67,66,8505334,8505399,68043229920,68043749921,381,62313,1,3,4,8
68033859000000,68034343000000,484.0,4096,66,66,8505400,8505465,68043757917,68044277918,177,62379,1,3,4,8
68034375000000,68034875000000,500.0,4096,67,66,8505466,8505531,68044285918,68044805920,270,62446,1,3,4,8
68034906000000,68035390000000,484.0,4096,67,65,8505532,8505596,68044813918,68045325920,191,62513,1,3,4,8
68035406000000,68035921000000,515.0,4096,66,66,8505597,8505662,68045333918,68045853920,295,62579,1,3,4,8
68035953000000,68036437000000,484.0,4096,67,66,8505663,8505728,68045861916,68046381920,251,62646,1,3,4,8
68036484000000,68036968000000,484.0,4096,67,66,8505729,8505794,68046389920,68046909921,194,62713,1,3,4,8
68037000000000,68037500000000,500.0,4096,66,66,8505795,8505860,68046917920,68047437920,4861,62779,1,3,4,8
68038125000000,68038125000000,0.0,4096,67,66,8505861,8505926,68047445921,68047965917,1010,62846,1,3,4,8
68038156000000,68038546000000,390.0,4096,66,65,8505927,8505991,68047973917,68048485920,301,62912,1,3,4,8
68038593000000,68039078000000,485.0,4096,67,67,8505992,8506058,68048493920,68049021917,308,62979,1,3,4,8
68039125000000,68039609000000,484.0,4096,66,65,8506059,8506123,68049029917,68049541917,197,63045,1,3,4,8
68039640000000,68040125000000,485.0,4096,67,65,8506124,8506188,68049549921,68050061918,389,63112,1,3,4,8
68040171000000,68040656000000,485.0,4096,67,67,8506189,8506255,68050069920,68050597920,238,63179,1,3,4,8
68040687000000,68041187000000,500.0,4096,66,65,8506256,8506320,68050605917,68051117920,341,63245,1,3,4,8
68041234000000,68041718000000,484.0,4096,67,66,8506321,8506386,68051125921,68051645920,300,63312,1,3,4,8
68041750000000,68042234000000,484.0,4096,66,66,8506387,8506452,68051653917,68052173921,576,63378,1,3,4,8
68042312000000,68042765000000,453.0,4096,67,65,8506453,8506517,68052181920,68052693918,261,63445,1,3,4,8
68042796000000,68043281000000,485.0,4096,67,66,8506518,8506583,68052701918,68053221917,217,63512,1,3,4,8
68043312000000,68043812000000,500.0,4096,66,66,8506584,8506649,68053229920,68053749920,275,63578,1,3,4,8
68043843000000,68044343000000,500.0,4096,67,66,8506650,8506715,68053757921,68054277920,265,63645,1,3,4,8
68044375000000,68044875000000,500.0,4096,67,66,8506716,8506781,68054285920,68054805917,304,63712,1,3,4,8
68044906000000,68045390000000,484.0,4096,67,65,8506782,8506846,68054813920,68055325920,325,63779,1,3,4,8
68045437000000,68045921000000,484.0,4096,67,67,8506847,8506913,68055333917,68055861918,235,63846,1,3,4,8
68045953000000,68046453000000,500.0,4096,66,65,8506914,8506978,68055869916,68056381921,282,63912,1,3,4,8
68046484000000,68046968000000,484.0,4096,67,66,8506979,8507044,68056389917,68056909920,301,63979,1,3,4,8
68047015000000,68047515000000,500.0,4096,67,67,8507045,8507111,68056917918,68057445920,296,64046,1,3,4,8
68047546000000,68048031000000,485.0,4096,66,65,8507112,8507176,68057453920,68057965920,250,64112,1,3,4,8
68048062000000,68048562000000,500.0,4096,67,66,8507177,8507242,68057973918,68058493917,178,64179,1,3,4,8
68048578000000,68049093000000,515.0,4096,67,67,8507243,8507309,68058501919,68059029920,300,64246,1,3,4,8
68049125000000,68049609000000,484.0,4096,66,65,8507310,8507374,68059037917,68059549920,436,64312,1,3,4,8
68049671000000,68050140000000,469.0,4096,67,65,8507375,8507439,68059557920,68060069919,306,64379,1,3,4,8
68050187000000,68050671000000,484.0,4096,67,67,8507440,8507506,68060077920,68060605920,275,64446,1,3,4,8
68050703000000,68051203000000,500.0,4096,67,66,8507507,8507572,68060613917,68061133917,195,64513,1,3,4,8
68051218000000,68051718000000,500.0,4096,67,66,8507573,8507638,68061141920,68061661920,267,64580,1,3,4,8
68051765000000,68052250000000,485.0,4096,66,66,8507639,8507704,68061669920,68062189920,319,64646,1,3,4,8
68052296000000,68052781000000,485.0,4096,67,66,8507705,8507770,68062197920,68062717917,254,64713,1,3,4,8
68052812000000,68053312000000,500.0,4096,67,66,8507771,8507836,68062725920,68063245920,259,64780,1,3,4,8
68053343000000,68053843000000,500.0,4096,66,66,8507837,8507902,68063253921,68063773917,195,64846,1,3,4,8
68053859000000,68054359000000,500.0,4096,67,66,8507903,8507968,68063781920,68064301920,281,64913,1,3,4,8
68054406000000,68054890000000,484.0,4096,67,66,8507969,8508034,68064309917,68064829916,286,64980,1,3,4,8
68054921000000,68055421000000,500.0,4096,67,66,8508035,8508100,68064837921,68065357920,243,65047,1,3,4,8
68055453000000,68055953000000,500.0,4096,67,66,8508101,8508166,68065365916,68065885920,379,65114,1,3,4,8
68056000000000,68056484000000,484.0,4096,68,67,8508167,8508233,68065893920,68066421916,206,65182,1,3,4,8
68056500000000,68057015000000,515.0,4096,66,66,8508234,8508299,68066429920,68066949920,274,65248,1,3,4,8
68057046000000,68057546000000,500.0,4096,67,66,8508300,8508365,68066957920,68067477920,317,65315,1,3,4,8
68057578000000,68058078000000,500.0,4096,68,67,8508366,8508432,68067485917,68068013920,5042,65383,1,3,4,8
68058718000000,68058734000000,16.0,4096,67,67,8508433,8508499,68068021920,68068549919,1342,65450,1,3,4,8
68058781000000,68059140000000,359.0,4096,66,65,8508500,8508564,68068557920,68069069920,290,65516,1,3,4,8
68059171000000,68059656000000,485.0,4096,67,66,8508565,8508630,68069077918,68069597920,326,65583,1,3,4,8
68059703000000,68060187000000,484.0,4096,68,66,8508631,8508696,68069605917,68070125921,276,65651,1,3,4,8
68060218000000,68060718000000,500.0,4096,66,66,8508697,8508762,68070133921,68070653920,174,65717,1,3,4,8
68060750000000,68061234000000,484.0,4096,66,65,8508763,8508827,68070661918,68071173920,304,65783,1,3,4,8
68061281000000,68061765000000,484.0,4096,67,66,8508828,8508893,68071181918,68071701920,188,65850,1,3,4,8
68061796000000,68062296000000,500.0,4096,67,66,8508894,8508959,68071709920,68072229920,384,65917,1,3,4,8
68062328000000,68062812000000,484.0,4096,66,65,8508960,8509024,68072237921,68072749918,362,65983,1,3,4,8
68062859000000,68063328000000,469.0,4096,66,65,8509025,8509089,68072757917,68073269919,208,66049,1,3,4,8
68063359000000,68063843000000,484.0,4096,65,64,8509090,8509153,68073277916,68073781921,255,66114,1,3,4,8
68063875000000,68064375000000,500.0,4096,66,66,8509154,8509219,68073789920,68074309921,198,66180,1,3,4,8
68064406000000,68064890000000,484.0,4096,66,65,8509220,8509284,68074317920,68074829920,294,66246,1,3,4,8
68064937000000,68065406000000,469.0,4096,67,65,8509285,8509349,68074837918,68075349917,207,66313,1,3,4,8
68065437000000,68065937000000,500.0,4096,66,65,8509350,8509414,68075357920,68075869920,300,66379,1,3,4,8
68065968000000,68066453000000,485.0,4096,65,65,8509415,8509479,68075877920,68076389921,283,66444,1,3,4,8
68066500000000,68066968000000,468.0,4096,66,65,8509480,8509544,68076397920,68076909920,201,66510,1,3,4,8
68067000000000,68067500000000,500.0,4096,66,65,8509545,8509609,68076917920,68077429920,340,66576,1,3,4,8
68067531000000,68068015000000,484.0,4096,66,65,8509610,8509674,68077437920,68077949920,312,66642,1,3,4,8
68068046000000,68068546000000,500.0,4096,67,67,8509675,8509741,68077957917,68078485920,331,66709,1,3,4,8
68068593000000,68069078000000,485.0,4096,67,66,8509742,8509807,68078493920,68079013917,212,66776,1,3,4,8
68069093000000,68069609000000,516.0,4096,67,66,8509808,8509873,68079021917,68079541920,383,66843,1,3,4,8
68069656000000,68070125000000,469.0,4096,67,65,8509874,8509938,68079549920,68080061921,393,66910,1,3,4,8
68070171000000,68070656000000,485.0,4096,67,67,8509939,8510005,68080069920,68080597917,293,66977,1,3,4,8
68070703000000,68071187000000,484.0,4096,67,66,8510006,8510071,68080605917,68081125918,256,67044,1,3,4,8
68071218000000,68071718000000,500.0,4096,67,66,8510072,8510137,68081133918,68081653917,259,67111,1,3,4,8
68071750000000,68072250000000,500.0,4096,66,66,8510138,8510203,68081661919,68082181917,367,67177,1,3,4,8
68072296000000,68072781000000,485.0,4096,68,67,8510204,8510270,68082189921,68082717917,329,67245,1,3,4,8
68072828000000,68073312000000,484.0,4096,67,66,8510271,8510336,68082725917,68083245920,196,67312,1,3,4,8
68073328000000,68073843000000,515.0,4096,66,66,8510337,8510402,68083253920,68083773917,292,67378,1,3,4,8
68073875000000,68074375000000,500.0,4096,68,67,8510403,8510469,68083781920,68084309921,186,67446,1,3,4,8
68074390000000,68074906000000,516.0,4096,67,66,8510470,8510535,68084317916,68084837916,290,67513,1,3,4,8
68074937000000,68075421000000,484.0,4096,67,65,8510536,8510600,68084845920,68085357920,280,67580,1,3,4,8
68075453000000,68075953000000,500.0,4096,67,67,8510601,8510667,68085365920,68085893921,269,67647,1,3,4,8
68075984000000,68076484000000,500.0,4096,67,66,8510668,8510733,68085901920,68086421918,254,67714,1,3,4,8
68076515000000,68077015000000,500.0,4096,67,66,8510734,8510799,68086429920,68086949916,197,67781,1,3,4,8
68077031000000,68077546000000,515.0,4096,66,66,8510800,8510865,68086957918,68087477920,313,67847,1,3,4,8
68077578000000,68078078000000,500.0,4096,69,68,8510866,8510933,68087485920,68088021917,4955,67916,1,3,4,8
68078718000000,68078718000000,0.0,4096,67,66,8510934,8510999,68088029921,68088549919,1137,67983,1,3,4,8
68078765000000,68079156000000,391.0,4096,67,67,8511000,8511066,68088557920,68089085920,383,68050,1,3,4,8
68079203000000,68079687000000,484.0,4096,68,67,8511067,8511133,68089093918,68089621920,296,68118,1,3,4,8
68079718000000,68080203000000,485.0,4096,67,65,8511134,8511198,68089629919,68090141917,256,68185,1,3,4,8
68080234000000,68080718000000,484.0,4096,66,65,8511199,8511263,68090149918,68090661917,285,68251,1,3,4,8
68080765000000,68081250000000,485.0,4096,65,65,8511264,8511328,68090669920,68091181920,193,68316,1,3,4,8
68081265000000,68081765000000,500.0,4096,66,65,8511329,8511393,68091189917,68091701920,295,68382,1,3,4,8
68081812000000,68082281000000,469.0,4096,66,65,8511394,8511458,68091709917,68092221920,297,68448,1,3,4,8
68082312000000,68082812000000,500.0,4096,67,66,8511459,8511524,68092229920,68092749920,267,68515,1,3,4,8
68082843000000,68083328000000,485.0,4096,66,65,8511525,8511589,68092757920,68093269920,200,68581,1,3,4,8
68083359000000,68083859000000,500.0,4096,66,65,8511590,8511654,68093277920,68093789918,303,68647,1,3,4,8
68083890000000,68084375000000,485.0,4096,66,66,8511655,8511720,68093797921,68094317921,297,68713,1,3,4,8
68084421000000,68084906000000,485.0,4096,67,66,8511721,8511786,68094325921,68094845920,281,68780,1,3,4,8
68084937000000,68085437000000,500.0,4096,68,66,8511787,8511852,68094853917,68095373916,362,68848,1,3,4,8
68085484000000,68085968000000,484.0,4096,67,67,8511853,8511919,68095381920,68095909916,221,68915,1,3,4,8
68086000000000,68086500000000,500.0,4096,67,66,8511920,8511985,68095917917,68096437920,258,68982,1,3,4,8
68086531000000,68087031000000,500.0,4096,68,67,8511986,8512052,68096445917,68096973916,327,69050,1,3,4,8
68087078000000,68087562000000,484.0,4096,67,66,8512053,8512118,68096981920,68097501918,225,69117,1,3,4,8
68087593000000,68088093000000,500.0,4096,67,67,8512119,8512185,68097509916,68098037921,292,69184,1,3,4,8
68088140000000,68088625000000,485.0,4096,67,66,8512186,8512251,68098045920,68098565921,307,69251,1,3,4,8
68088671000000,68089156000000,485.0,4096,66,65,8512252,8512316,68098573917,68099085920,386,69317,1,3,4,8
68089203000000,68089671000000,468.0,4096,66,65,8512317,8512381,68099093916,68099605920,422,69383,1,3,4,8
68089718000000,68090187000000,469.0,4096,66,65,8512382,8512446,68099613920,68100125920,194,69449,1,3,4,8
68090218000000,68090718000000,500.0,4096,66,65,8512447,8512511,68100133916,68100645917,272,69515,1,3,4,8
68090750000000,68091234000000,484.0,4096,66,65,8512512,8512576,68100653921,68101165920,270,69581,1,3,4,8
68091265000000,68091765000000,500.0,4096,66,66,8512577,8512642,68101173918,68101693921,360,69647,1,3,4,8
68091796000000,68092281000000,485.0,4096,67,66,8512643,8512708,68101701920,68102221920,218,69714,1,3,4,8
68092312000000,68092812000000,500.0,4096,67,66,8512709,8512774,68102229920,68102749920,342,69781,1,3,4,8
68092859000000,68093343000000,484.0,4096,67,66,8512775,8512840,68102757918,68103277920,267,69848,1,3,4,8
68093375000000,68093875000000,500.0,4096,67,67,8512841,8512907,68103285921,68103813920,233,69915,1,3,4,8
68093906000000,68094406000000,500.0,4096,67,66,8512908,8512973,68103821920,68104341916,247,69982,1,3,4,8
68094437000000,68094937000000,500.0,4096,67,66,8512974,8513039,68104349918,68104869921,215,70049,1,3,4,8
68094968000000,68095453000000,485.0,4096,68,66,8513040,8513105,68104877920,68105397920,323,70117,1,3,4,8
68095500000000,68095984000000,484.0,4096,67,66,8513106,8513171,68105405920,68105925920,295,70184,1,3,4,8
68096031000000,68096515000000,484.0,4096,66,66,8513172,8513237,68105933916,68106453916,161,70250,1,3,4,8
68096546000000,68097046000000,500.0,4096,68,67,8513238,8513304,68106461917,68106989920,298,70318,1,3,4,8
68097093000000,68097578000000,485.0,4096,66,65,8513305,8513369,68106997919,68107509920,260,70384,1,3,4,8
68097609000000,68098109000000,500.0,4096,67,67,8513370,8513436,68107517920,68108045920,360,70451,1,3,4,8
68098156000000,68098640000000,484.0,4096,67,66,8513437,8513502,68108053918,68108573917,5714,70518,1,3,4,8
68099375000000,68099375000000,0.0,4096,67,66,8513503,8513568,68108581916,68109101920,1898,70585,1,3,4,8
68099406000000,68099687000000,281.0,4096,67,66,8513569,8513634,68109109920,68109629917,250,70652,1,3,4,8
68099718000000,68100234000000,516.0,4096,68,67,8513635,8513701,68109637917,68110165920,329,70720,1,3,4,8
68100265000000,68100750000000,485.0,4096,67,66,8513702,8513767,68110173916,68110693920,262,70787,1,3,4,8
68100796000000,68101281000000,485.0,4096,66,65,8513768,8513832,68110701916,68111213917,323,70853,1,3,4,8
68101328000000,68101812000000,484.0,4096,67,67,8513833,8513899,68111221921,68111749917,190,70920,1,3,4,8
68101843000000,68102343000000,500.0,4096,68,66,8513900,8513965,68111757917,68112277917,333,70988,1,3,4,8
68102375000000,68102875000000,500.0,4096,67,66,8513966,8514031,68112285918,68112805919,250,71055,1,3,4,8
68102906000000,68103406000000,500.0,4096,67,67,8514032,8514098,68112813916,68113341918,223,71122,1,3,4,8
68103437000000,68103937000000,500.0,4096,67,66,8514099,8514164,68113349917,68113869921,331,71189,1,3,4,8
68103968000000,68104468000000,500.0,4096,67,66,8514165,8514230,68113877920,68114397916,187,71256,1,3,4,8
68104484000000,68105000000000,516.0,4096,69,67,8514231,8514297,68114405920,68114933920,251,71325,1,3,4,8
68105031000000,68105531000000,500.0,4096,67,67,8514298,8514364,68114941916,68115469920,315,71392,1,3,4,8
68105578000000,68106062000000,484.0,4096,67,66,8514365,8514430,68115477918,68115997920,209,71459,1,3,4,8
68106093000000,68106593000000,500.0,4096,67,66,8514431,8514496,68116005920,68116525916,302,71526,1,3,4,8
68106625000000,68107125000000,500.0,4096,67,67,8514497,8514563,68116533920,68117061921,479,71593,1,3,4,8
68107171000000,68107656000000,485.0,4096,66,65,8514564,8514628,68117069917,68117581917,381,71659,1,3,4,8
68107703000000,68108171000000,468.0,4096,67,66,8514629,8514694,68117589917,68118109921,286,71726,1,3,4,8
68108218000000,68108703000000,485.0,4096,67,66,8514695,8514760,68118117920,68118637917,198,71793,1,3,4,8
68108734000000,68109234000000,500.0,4096,67,67,8514761,8514827,68118645920,68119173920,320,71860,1,3,4,8
68109281000000,68109765000000,484.0,4096,67,66,8514828,8514893,68119181920,68119701916,203,71927,1,3,4,8
68109796000000,68110296000000,500.0,4096,68,66,8514894,8514959,68119709921,68120229920,336,71995,1,3,4,8
68110328000000,68110812000000,484.0,4096,67,66,8514960,8515025,68120237920,68120757921,273,72062,1,3,4,8
68110859000000,68111359000000,500.0,4096,66,66,8515026,8515091,68120765918,68121285920,227,72128,1,3,4,8
68111375000000,68111890000000,515.0,4096,68,67,8515092,8515158,68121293917,68121821920,337,72196,1,3,4,8
68111937000000,68112421000000,484.0,4096,68,67,8515159,8515225,68121829920,68122357917,298,72264,1,3,4,8
68112453000000,68112953000000,500.0,4096,66,66,8515226,8515291,68122365916,68122885917,309,72330,1,3,4,8
68112984000000,68113468000000,484.0,4096,67,66,8515292,8515357,68122893917,68123413917,291,72397,1,3,4,8
68113515000000,68114000000000,485.0,4096,67,66,8515358,8515423,68123421918,68123941918,242,72464,1,3,4,8
68114046000000,68114546000000,500.0,4096,68,68,8515424,8515491,68123949921,68124485917,365,72532,1,3,4,8
68114593000000,68115078000000,485.0,4096,68,66,8515492,8515557,68124493921,68125013920,303,72600,1,3,4,8
68115109000000,68115609000000,500.0,4096,67,66,8515558,8515623,68125021920,68125541920,305,72667,1,3,4,8
68115640000000,68116125000000,485.0,4096,67,66,8515624,8515689,68125549920,68126069921,357,72734,1,3,4,8
68116187000000,68116687000000,500.0,4096,68,68,8515690,8515757,68126077920,68126613921,211,72802,1,3,4,8
68116703000000,68117203000000,500.0,4096,67,66,8515758,8515823,68126621920,68127141919,337,72869,1,3,4,8
68117250000000,68117734000000,484.0,4096,66,65,8515824,8515888,68127149920,68127661920,258,72935,1,3,4,8
68117765000000,68118265000000,500.0,4096,67,67,8515889,8515955,68127669920,68128197916,222,73002,1,3,4,8
68118296000000,68118796000000,500.0,4096,67,66,8515956,8516021,68128205916,68128725920,4816,73069,1,3,4,8
68119421000000,68119421000000,0.0,4096,67,66,8516022,8516087,68128733917,68129253920,993,73136,1,3,4,8
68119453000000,68119859000000,406.0,4096,67,67,8516088,8516154,68129261920,68129789920,249,73203,1,3,4,8
68119890000000,68120390000000,500.0,4096,68,66,8516155,8516220,68129797920,68130317916,261,73271,1,3,4,8
68120421000000,68120906000000,485.0,4096,67,66,8516221,8516286,68130325918,68130845918,179,73338,1,3,4,8
68120937000000,68121437000000,500.0,4096,67,67,8516287,8516353,68130853920,68131381920,280,73405,1,3,4,8
68121484000000,68121968000000,484.0,4096,67,66,8516354,8516419,68131389920,68131909920,273,73472,1,3,4,8
68122015000000,68122500000000,485.0,4096,67,65,8516420,8516484,68131917921,68132429920,225,73539,1,3,4,8
68122531000000,68123031000000,500.0,4096,67,67,8516485,8516551,68132437920,68132965920,307,73606,1,3,4,8
68123062000000,68123562000000,500.0,4096,67,66,8516552,8516617,68132973917,68133493920,217,73673,1,3,4,8
68123593000000,68124078000000,485.0,4096,67,66,8516618,8516683,68133501920,68134021920,296,73740,1,3,4,8
68124125000000,68124609000000,484.0,4096,66,66,8516684,8516749,68134029917,68134549918,167,73806,1,3,4,8
68124640000000,68125140000000,500.0,4096,67,65,8516750,8516814,68134557920,68135069917,371,73873,1,3,4,8
68125187000000,68125671000000,484.0,4096,68,67,8516815,8516881,68135077917,68135605916,366,73941,1,3,4,8
68125718000000,68126203000000,485.0,4096,67,67,8516882,8516948,68135613920,68136141920,273,74008,1,3,4,8
68126234000000,68126734000000,500.0,4096,67,66,8516949,8517014,68136149920,68136669920,260,74075,1,3,4,8
68126765000000,68127265000000,500.0,4096,66,66,8517015,8517080,68136677918,68137197917,506,74141,1,3,4,8
68127312000000,68127781000000,469.0,4096,67,66,8517081,8517146,68137205917,68137725917,280,74208,1,3,4,8
68127828000000,68128312000000,484.0,4096,67,66,8517147,8517212,68137733920,68138253917,317,74275,1,3,4,8
68128359000000,68128843000000,484.0,4096,67,67,8517213,8517279,68138261919,68138789917,301,74342,1,3,4,8
68128890000000,68129375000000,485.0,4096,67,66,8517280,8517345,68138797918,68139317920,305,74409,1,3,4,8
68129421000000,68129906000000,485.0,4096,67,66,8517346,8517411,68139325918,68139845920,210,74476,1,3,4,8
68129937000000,68130437000000,500.0,4096,66,65,8517412,8517476,68139853920,68140365917,287,74542,1,3,4,8
68130468000000,68130953000000,485.0,4096,66,65,8517477,8517541,68140373918,68140885920,267,74608,1,3,4,8
68130984000000,68131468000000,484.0,4096,66,65,8517542,8517606,68140893920,68141405920,202,74674,1,3,4,8
68131500000000,68131984000000,484.0,4096,65,65,8517607,8517671,68141413920,68141925921,260,74739,1,3,4,8
68132031000000,68132515000000,484.0,4096,67,66,8517672,8517737,68141933917,68142453920,247,74806,1,3,4,8
68132546000000,68133031000000,485.0,4096,66,65,8517738,8517802,68142461916,68142973920,251,74872,1,3,4,8
68133078000000,68133562000000,484.0,4096,66,66,8517803,8517868,68142981920,68143501917,331,74938,1,3,4,8
68133609000000,68134093000000,484.0,4096,67,66,8517869,8517934,68143509920,68144029917,182,75005,1,3,4,8
68134125000000,68134625000000,500.0,4096,67,66,8517935,8518000,68144037920,68144557920,270,75072,1,3,4,8
68134656000000,68135156000000,500.0,4096,67,66,8518001,8518066,68144565917,68145085918,365,75139,1,3,4,8
68135203000000,68135687000000,484.0,4096,67,66,8518067,8518132,68145093918,68145613920,444,75206,1,3,4,8
68135734000000,68136203000000,469.0,4096,67,66,8518133,8518198,68145621920,68146141916,262,75273,1,3,4,8
