seq,t_us,rr_ms,hr_bpm,score,flags
57621,461510044,848.0,77.3,0.841,169
57733,462406043,895.0,77.3,0.804,169
57841,463270043,864.0,77.3,0.802,169
57896,463710043,440.0,77.3,0.507,169
58006,464590044,880.0,77.3,0.509,169
58062,465038044,448.0,77.3,0.53,185
58163,465846043,807.0,77.3,0.546,185
58266,466670044,824.0,77.3,0.828,169
58368,467486046,816.0,77.3,0.812,169
58469,468294043,807.0,77.3,0.827,169
58652,469758047,1464.0,77.3,0.792,185
58704,470174043,415.0,77.3,0.509,169
58845,471302043,1128.0,77.3,0.786,185
58897,471718045,416.0,77.3,0.485,185
58995,472502043,783.0,77.3,0.485,185
59135,473622043,1120.0,77.3,0.772,169
59223,474326043,704.0,77.3,0.776,169
59313,475046045,720.0,77.3,0.824,169
59402,475758044,711.0,77.3,0.85,169
59495,476502044,744.0,77.3,0.865,169
59589,477254043,751.0,77.3,0.864,169
59676,477950043,696.0,77.3,0.858,169
59762,478638043,688.0,77.3,0.84,169
59942,480078043,1440.0,77.3,0.774,185
60031,480790043,712.0,77.3,0.768,169
60125,481542045,752.0,77.3,0.789,169
60219,482294044,751.0,77.3,0.789,169
60312,483038043,743.0,77.3,0.819,169
60404,483774044,736.0,77.3,0.819,169
60494,484494045,720.0,77.3,0.85,169
60577,485158043,663.0,77.3,0.882,169
60660,485822043,664.0,77.3,0.861,169
60794,486894044,1072.0,77.3,0.488,185
60929,487974043,1079.0,77.3,0.772,169
61023,488726045,752.0,77.3,0.778,169
61116,489470043,743.0,77.3,0.791,169
61211,490230043,760.0,77.3,0.798,169
61306,490990043,760.0,77.3,0.807,169
61392,491678043,688.0,77.3,0.851,169
61484,492414043,736.0,77.3,0.876,169
61579,493174043,760.0,77.3,0.865,169
61674,493934043,760.0,77.3,0.862,169
61774,494734045,800.0,77.3,0.875,169
61880,495582043,847.0,77.3,0.865,169
61988,496446043,864.0,77.3,0.839,169
62093,497286043,840.0,77.3,0.826,169
62197,498118046,832.0,77.3,0.82,169
62296,498910043,791.0,77.3,0.82,169
62399,499734044,824.0,77.3,0.809,169
62497,500518045,784.0,77.3,0.804,169
62598,501326043,807.0,77.3,0.813,169
62700,502142043,816.0,77.3,0.801,169
62807,502998043,856.0,77.3,0.784,169
62912,503838043,840.0,77.3,0.774,169
62968,504286043,448.0,77.3,0.489,185
63069,505094043,808.0,77.3,0.515,169
63205,506182043,1088.0,77.3,0.778,169
63291,506870043,688.0,77.3,0.833,169
63376,507550046,680.0,77.3,0.856,169
63463,508246043,695.0,77.3,0.881,169
63555,508982044,736.0,77.3,0.868,169
63650,509742045,760.0,77.3,0.862,169
63746,510510043,767.0,77.3,0.849,169
63843,511286044,776.0,77.3,0.842,169
63935,512022043,735.0,77.3,0.831,169
64108,513406043,1384.0,77.3,0.782,169
64197,514118045,712.0,77.3,0.822,169
64287,514838044,719.0,77.3,0.821,169
64382,515598043,759.0,77.3,0.825,169
64480,516382043,784.0,77.3,0.821,169
64579,517174043,792.0,77.3,0.827,169
64680,517982045,808.0,77.3,0.824,169
64776,518750043,767.0,77.3,0.809,169
64860,519422043,672.0,77.3,0.848,169
64945,520102043,680.0,77.3,0.897,169
65030,520782043,680.0,77.3,0.862,169
65171,521910043,1128.0,77.3,0.487,185
65219,522294043,384.0,77.3,0.545,185
65320,523102045,808.0,77.3,0.561,185
65426,523950043,847.0,77.3,0.816,169
65535,524822043,872.0,77.3,0.852,169
65639,525654043,832.0,77.3,0.857,169
65737,526438044,784.0,77.3,0.863,169
65834,527214044,776.0,77.3,0.848,169
65930,527982043,767.0,77.3,0.852,169
66030,528782044,800.0,77.3,0.851,169
66133,529606044,824.0,77.3,0.859,169
66238,530446043,839.0,77.3,0.86,169
66347,531318043,872.0,77.3,0.862,169
66459,532214045,896.0,77.3,0.857,169
66568,533086044,871.0,77.3,0.834,169
66677,533958043,871.0,77.3,0.821,169
66784,534814043,856.0,77.3,0.809,169
66892,535678046,864.0,77.3,0.788,169
66945,536102045,423.0,77.3,0.494,185
67094,537294043,1191.0,77.3,0.767,169
67165,537862046,568.0,77.3,0.605,169
67252,538558043,695.0,77.3,0.436,185
67355,539382043,824.0,77.3,0.488,185
67477,540358043,976.0,77.3,0.799,169
67564,541054043,696.0,77.3,0.81,169
67656,541790043,736.0,77.3,0.837,169
67751,542550043,760.0,77.3,0.858,169
67848,543326043,776.0,77.3,0.858,169
67947,544118043,792.0,77.3,0.843,169
68049,544934043,816.0,77.3,0.836,169
68144,545694044,760.0,77.3,0.839,169
68231,546390044,696.0,77.3,0.862,169
68321,547110043,719.0,77.3,0.867,169
68410,547822043,712.0,77.3,0.858,169
68502,548558046,736.0,77.3,0.576,185
68602,549358045,799.0,77.3,0.582,185
68704,550174043,815.0,77.3,0.825,169
68807,550998043,824.0,77.3,0.83,169
68910,551822050,824.0,77.3,0.831,169
69010,552622043,799.0,77.3,0.83,169
69107,553398043,776.0,77.3,0.836,169
69200,554142043,744.0,77.3,0.815,169
69339,555254045,1112.0,77.3,0.497,185
69471,556310047,1056.0,77.3,0.795,169
69569,557094043,783.0,77.3,0.786,169
69672,557918043,824.0,77.3,0.763,169
69774,558734043,816.0,77.3,0.762,169
69874,559534043,800.0,77.3,0.772,169
69929,559974043,440.0,77.3,0.505,169
70029,560774043,800.0,77.3,0.499,185
70172,561918043,1144.0,77.3,0.794,169
70226,562350045,432.0,77.3,0.511,169
70369,563494043,1143.0,77.3,0.767,169
70467,564278044,784.0,77.3,0.767,169
70563,565046043,767.0,77.3,0.773,169
70654,565774046,728.0,77.3,0.783,169
70741,566470044,695.0,77.3,0.849,169
70830,567182043,711.0,77.3,0.866,169
70920,567902044,720.0,77.3,0.876,169
71009,568614045,712.0,77.3,0.854,169
71097,569318043,703.0,77.3,0.853,169
71188,570046046,728.0,77.3,0.843,169
71284,570814045,767.0,77.3,0.56,185
71385,571622043,807.0,77.3,0.588,185
71486,572430043,808.0,77.3,0.807,169
71585,573222043,792.0,77.3,0.799,169
71686,574030043,808.0,77.3,0.833,169
71789,574854044,824.0,77.3,0.836,169
71890,575662044,808.0,77.3,0.804,169
71988,576446044,784.0,77.3,0.817,169
72084,577214044,768.0,77.3,0.815,169
72229,578374046,1160.0,77.3,0.443,185
72353,579366043,991.0,77.3,0.789,169
72444,580094046,728.0,77.3,0.816,169
72534,580814043,719.0,77.3,0.814,169
72622,581518044,704.0,77.3,0.853,169
72710,582222043,703.0,77.3,0.86,169
72790,582862043,640.0,77.3,0.835,169
72884,583614046,752.0,77.3,0.859,169
72977,584358045,743.0,77.3,0.834,169
73074,585134043,775.0,77.3,0.553,185
73219,586294043,1160.0,77.3,0.457,185
73353,587366043,1072.0,77.3,0.782,169
73406,587790043,424.0,77.3,0.515,169
73538,588846045,1056.0,77.3,0.8,169
73632,589598043,751.0,77.3,0.813,169
73729,590374044,776.0,77.3,0.829,169
73828,591166045,792.0,77.3,0.822,169
73929,591974044,807.0,77.3,0.826,169
74033,592806044,832.0,77.3,0.808,169
74136,593630043,823.0,77.3,0.797,169
74246,594510043,880.0,77.3,0.791,169
74298,594926045,416.0,77.3,0.52,169
74364,595454043,527.0,77.3,0.522,185
74469,596294046,840.0,77.3,0.834,169
74578,597166043,871.0,77.3,0.844,169
74684,598014043,848.0,77.3,0.86,169
74788,598846043,832.0,77.3,0.878,169
74892,599678046,832.0,77.3,0.873,169
74992,600478044,799.0,77.3,0.847,169
75090,601262044,784.0,77.3,0.868,169
75190,602062043,799.0,77.3,0.876,169
75291,602870043,808.0,77.3,0.883,169
75396,603710043,840.0,77.3,0.86,169
75499,604534043,824.0,77.3,0.83,169
75594,605294044,760.0,77.3,0.843,169
75691,606070043,775.0,77.3,0.876,169
75791,606870043,800.0,77.3,0.877,169
75894,607694044,824.0,77.3,0.867,169
76002,608558043,863.0,77.3,0.85,169
76108,609406043,848.0,77.3,0.825,169
76212,610238043,832.0,77.3,0.82,169
76315,611062043,824.0,77.3,0.803,169
76419,611894044,832.0,77.3,0.797,169
76524,612734046,840.0,77.3,0.78,169
76626,613550045,815.0,77.3,0.781,169
76727,614358043,807.0,77.3,0.764,169
76824,615134043,776.0,77.3,0.775,169
76912,615838045,704.0,77.3,0.791,169
76994,616494044,655.0,77.3,0.835,169
77082,617198043,703.0,77.3,0.905,169
77175,617942045,744.0,77.3,0.902,169
77275,618742043,799.0,77.3,0.879,169
77384,619614043,872.0,77.3,0.846,169
77500,620542043,928.0,77.3,0.809,169
77617,621478043,936.0,77.3,0.774,169
77733,622406043,928.0,77.3,0.763,185
77840,623262046,856.0,77.3,0.288,185
77961,624230046,968.0,77.3,0.877,169
78072,625118045,887.0,77.3,0.887,169
78183,626006043,887.0,77.3,0.887,169
78295,626902045,896.0,77.3,0.852,169
78402,627758044,855.0,77.3,0.835,169
78502,628558043,799.0,77.3,0.822,169
78596,629310044,752.0,77.3,0.83,169
78685,630022044,712.0,77.3,0.854,169
78774,630734044,712.0,77.3,0.871,169
78864,631454043,719.0,77.3,0.882,169
78953,632166044,712.0,77.3,0.865,169
79043,632886043,719.0,77.3,0.84,169
79185,634022046,1136.0,77.3,0.479,185
79322,635118043,1095.0,77.3,0.791,185
79370,635502043,384.0,77.3,0.523,169
79528,636766043,1264.0,77.3,0.777,185
79581,637190047,424.0,77.3,0.477,185
79687,638038043,847.0,77.3,0.464,185
79744,638494043,456.0,77.3,0.838,169
79854,639374046,880.0,77.3,0.871,169
79965,640262045,887.0,77.3,0.885,169
80078,641166044,903.0,77.3,0.862,169
80189,642054043,887.0,77.3,0.844,169
80303,642966043,912.0,77.3,0.816,169
80410,643822046,856.0,77.3,0.768,169
80464,644254045,431.0,77.3,0.495,185
80611,645430043,1175.0,77.3,0.774,169
80709,646214043,784.0,77.3,0.785,169
80806,646990043,776.0,77.3,0.778,169
80857,647398043,408.0,77.3,0.512,169
81005,648582043,1184.0,77.3,0.788,169
81056,648990045,408.0,77.3,0.509,169
81205,650182043,1191.0,77.3,0.78,169
81257,650598043,416.0,77.3,0.511,169
81403,651766046,1168.0,77.3,0.783,169
81504,652574047,808.0,77.3,0.782,169
81603,653366047,792.0,77.3,0.765,169
81702,654158044,791.0,77.3,0.765,169
81798,654926043,767.0,77.3,0.771,169
81895,655702045,776.0,77.3,0.805,169
81995,656502046,800.0,77.3,0.787,169
82094,657294043,791.0,77.3,0.78,169
82194,658094043,800.0,77.3,0.786,169
82296,658910046,816.0,77.3,0.78,169
82396,659710044,799.0,77.3,0.777,169
82494,660494043,783.0,77.3,0.756,169
82587,661238047,744.0,77.3,0.782,169
82680,661982046,743.0,77.3,0.813,169
82775,662742045,759.0,77.3,0.823,169
82871,663510044,767.0,77.3,0.817,169
82967,664278044,768.0,77.3,0.826,169
83065,665062043,783.0,77.3,0.831,169
83160,665822043,760.0,77.3,0.836,169
83255,666582043,760.0,77.3,0.87,169
83351,667350045,768.0,77.3,0.867,169
83448,668126044,775.0,77.3,0.875,169
83546,668910044,784.0,77.3,0.861,169
83643,669686043,775.0,77.3,0.86,169
83740,670462043,776.0,77.3,0.857,169
83834,671214043,752.0,77.3,0.863,169
83925,671942045,728.0,77.3,0.864,169
84018,672686043,743.0,77.3,0.85,169
84110,673422043,736.0,77.3,0.825,169
84289,674854047,1432.0,77.3,0.757,169
84376,675550043,695.0,77.3,0.802,169
84467,676278044,728.0,77.3,0.822,169
84560,677022044,744.0,77.3,0.838,169
84656,677790043,767.0,77.3,0.829,169
84754,678574044,784.0,77.3,0.82,169
84851,679350043,775.0,77.3,0.821,169
84946,680110044,760.0,77.3,0.842,169
85044,680894043,783.0,77.3,0.849,169
85140,681662043,768.0,77.3,0.85,169
85233,682406043,744.0,77.3,0.861,169
85326,683150043,744.0,77.3,0.876,169
85420,683902043,752.0,77.3,0.861,169
85515,684662043,760.0,77.3,0.852,169
85611,685430043,768.0,77.3,0.849,169
85707,686198043,768.0,77.3,0.829,169
85800,686942044,744.0,77.3,0.819,169
85976,688350043,1407.0,77.3,0.77,169
86058,689006043,656.0,77.3,0.811,169
86139,689654043,648.0,77.3,0.86,169
86219,690294043,640.0,77.3,0.868,169
86304,690974043,680.0,77.3,0.861,169
86443,692086043,1112.0,77.3,0.483,185
86578,693166043,1080.0,77.3,0.77,185
86672,693918043,752.0,77.3,0.756,169
86762,694638043,720.0,77.3,0.76,169
86848,695326043,688.0,77.3,0.795,169
86930,695982045,656.0,77.3,0.849,169
87009,696614043,631.0,77.3,0.868,169
87162,697838045,1224.0,77.3,0.77,169
87238,698446043,607.0,77.3,0.832,169
87312,699038043,592.0,77.3,0.854,169
87456,700190043,1152.0,77.3,0.78,169
87525,700742045,552.0,77.3,0.82,169
87596,701310045,568.0,77.3,0.832,169
87738,702446043,1135.0,77.3,0.816,169
87813,703046043,600.0,77.3,0.864,169
87889,703654043,608.0,77.3,0.786,169
88015,704662043,1008.0,77.3,0.508,169
88141,705670044,1008.0,77.3,0.836,169
88228,706366043,695.0,77.3,0.84,169
88309,707014043,648.0,77.3,0.847,169
88406,707790043,776.0,77.3,0.859,169
88496,708510046,720.0,77.3,0.837,169
88599,709334045,823.0,77.3,0.87,169
88710,710222043,887.0,77.3,0.861,169
88825,711142044,920.0,77.3,0.85,169
88934,712014045,872.0,77.3,0.811,169
89035,712822044,807.0,77.3,0.815,169
89133,713606043,783.0,77.3,0.818,169
89226,714350043,744.0,77.3,0.831,169
89311,715030043,680.0,77.3,0.854,169
89398,715726043,696.0,77.3,0.857,169
89485,716422043,696.0,77.3,0.84,169
89656,717790043,1368.0,77.3,0.804,169
89747,718518047,728.0,77.3,0.802,169
89844,719294043,775.0,77.3,0.8,169
89939,720054043,760.0,77.3,0.767,169
90032,720798043,744.0,77.3,0.803,169
90127,721558043,760.0,77.3,0.837,169
90222,722318043,760.0,77.3,0.841,169
90314,723054043,736.0,77.3,0.836,169
90405,723782043,728.0,77.3,0.863,169
90498,724526044,744.0,77.3,0.88,169
90592,725278044,752.0,77.3,0.881,169
90692,726078043,799.0,77.3,0.865,169
90786,726830043,752.0,77.3,0.834,169
90881,727590043,760.0,77.3,0.841,169
90969,728294043,704.0,77.3,0.82,169
91129,729574043,1280.0,77.3,0.791,169
91206,730190044,616.0,77.3,0.851,169
91284,730814043,623.0,77.3,0.837,169
91437,732038043,1224.0,77.3,0.786,169
91516,732670044,632.0,77.3,0.839,169
91607,733398043,727.0,77.3,0.872,169
91715,734262043,864.0,77.3,0.844,169
91828,735166044,904.0,77.3,0.774,169
91878,735566043,399.0,77.3,0.481,185
91997,736518043,952.0,77.3,0.507,169
92071,737110045,592.0,77.3,0.846,169
92183,738006043,895.0,77.3,0.857,169
92294,738894044,888.0,77.3,0.876,169
92404,739774044,880.0,77.3,0.856,169
92517,740678043,903.0,77.3,0.815,169
92628,741566047,888.0,77.3,0.788,169
92743,742486046,919.0,77.3,0.8,185
92796,742910043,423.0,77.3,0.491,185
92858,743406043,496.0,77.3,0.843,169
92970,744302046,896.0,77.3,0.859,169
93075,745142043,839.0,77.3,0.867,169
93185,746022044,880.0,77.3,0.89,169
93298,746926046,904.0,77.3,0.857,169
93405,747782044,855.0,77.3,0.82,169
93512,748638043,855.0,77.3,0.815,169
93621,749510043,872.0,77.3,0.794,169
93679,749974046,464.0,77.3,0.501,169
93786,750830046,856.0,77.3,0.501,169
93846,751310043,479.0,77.3,0.532,185
94001,752550047,1240.0,77.3,0.45,185
94053,752966043,415.0,77.3,0.836,169
94157,753798043,832.0,77.3,0.835,169
94258,754606044,808.0,77.3,0.835,169
94365,755462044,856.0,77.3,0.871,169
94469,756294045,832.0,77.3,0.867,169
94568,757086044,791.0,77.3,0.842,169
94660,757822043,735.0,77.3,0.834,169
94755,758582043,760.0,77.3,0.859,169
94857,759398043,816.0,77.3,0.86,169
94960,760222047,824.0,77.3,0.847,169
95060,761022046,799.0,77.3,0.844,169
95164,761854043,831.0,77.3,0.867,169
95274,762734044,880.0,77.3,0.87,169
95384,763614043,879.0,77.3,0.847,169
95495,764502044,888.0,77.3,0.828,169
95604,765374043,871.0,77.3,0.808,169
95705,766182044,808.0,77.3,0.781,169
95803,766966043,783.0,77.3,0.784,169
95903,767766044,800.0,77.3,0.804,169
96003,768566044,800.0,77.3,0.796,169
96099,769334043,767.0,77.3,0.779,169
96191,770070045,736.0,77.3,0.81,169
96292,770878043,807.0,77.3,0.833,169
96397,771718043,840.0,77.3,0.804,169
96503,772566043,848.0,77.3,0.77,169
96614,773454047,888.0,77.3,0.777,169
96726,774350046,895.0,77.3,0.318,185
96841,775270045,919.0,77.3,0.828,169
96951,776150046,880.0,77.3,0.878,169
97061,777030043,879.0,77.3,0.877,169
97166,777870044,840.0,77.3,0.852,169
97266,778670043,799.0,77.3,0.84,169
97369,779494045,824.0,77.3,0.858,169
97471,780310043,815.0,77.3,0.858,169
97574,781134046,824.0,77.3,0.834,169
97673,781926043,791.0,77.3,0.815,169
97773,782726043,800.0,77.3,0.842,169
97879,783574043,848.0,77.3,0.82,169
97985,784422046,848.0,77.3,0.804,169
98089,785254044,831.0,77.3,0.785,169
98196,786110043,855.0,77.3,0.79,169
98306,786990043,880.0,77.3,0.78,185
98413,787846046,856.0,77.3,0.769,185
98514,788654046,808.0,77.3,0.756,185
98567,789078044,423.0,77.3,0.45,185
98619,789494043,415.0,77.3,0.574,185
98724,790334043,840.0,77.3,0.835,169
98830,791182043,848.0,77.3,0.852,169
98932,791998043,816.0,77.3,0.822,169
99033,792806043,808.0,77.3,0.842,169
99136,793630044,824.0,77.3,0.863,169
99241,794470043,839.0,77.3,0.871,169
99345,795302043,832.0,77.3,0.829,169
99452,796158046,856.0,77.3,0.875,169
99561,797030043,871.0,77.3,0.851,169
99666,797870044,840.0,77.3,0.813,169
99769,798694043,823.0,77.3,0.818,169
99875,799542043,848.0,77.3,0.811,169
99981,800390044,848.0,77.3,0.797,169
100087,801238043,847.0,77.3,0.772,169
100189,802054043,816.0,77.3,0.765,169
100291,802870046,816.0,77.3,0.779,169
100342,803278043,407.0,77.3,0.504,169
100442,804078043,800.0,77.3,0.508,169
100543,804886043,808.0,77.3,0.484,185
100643,805686043,800.0,77.3,0.488,185
100742,806478045,792.0,77.3,0.497,185
100883,807606043,1127.0,77.3,0.762,169
100967,808278043,672.0,77.3,0.789,169
101055,808982043,704.0,77.3,0.829,169
101141,809670045,688.0,77.3,0.84,169
101226,810350043,679.0,77.3,0.881,169
101316,811070044,720.0,77.3,0.859,169
101414,811854043,783.0,77.3,0.853,169
101515,812662045,808.0,77.3,0.839,169
101614,813454043,791.0,77.3,0.814,169
101711,814230044,776.0,77.3,0.821,169
101811,815030043,799.0,77.3,0.837,169
101912,815838044,808.0,77.3,0.838,169
102013,816646046,808.0,77.3,0.823,169
102112,817438043,791.0,77.3,0.828,169
102216,818270045,832.0,77.3,0.855,169
102322,819118045,848.0,77.3,0.869,169
102431,819990043,871.0,77.3,0.858,169
102533,820806043,816.0,77.3,0.845,169
102638,821646043,840.0,77.3,0.849,169
102744,822494043,848.0,77.3,0.848,169
102851,823350044,856.0,77.3,0.822,169
102953,824166045,816.0,77.3,0.787,169
103054,824974043,807.0,77.3,0.801,169
103159,825814045,840.0,77.3,0.8,169
103265,826662046,848.0,77.3,0.789,169
103366,827470044,807.0,77.3,0.762,169
103467,828278045,808.0,77.3,0.777,169
103567,829078046,800.0,77.3,0.782,169
103665,829862043,783.0,77.3,0.772,169
103757,830598046,736.0,77.3,0.778,169
103853,831366043,767.0,77.3,0.803,169
103948,832126043,760.0,77.3,0.815,169
104046,832910043,784.0,77.3,0.802,169
104138,833646043,736.0,77.3,0.804,169
104233,834406046,760.0,77.3,0.85,169
104332,835198043,791.0,77.3,0.861,169
104438,836046043,848.0,77.3,0.831,169
104542,836878043,832.0,77.3,0.783,169
104643,837686043,808.0,77.3,0.787,169
104747,838518043,832.0,77.3,0.79,169
104849,839334043,816.0,77.3,0.775,169
104945,840102044,768.0,77.3,0.782,169
105043,840886044,784.0,77.3,0.797,169
105137,841638043,751.0,77.3,0.802,169
105225,842342043,704.0,77.3,0.826,169
105315,843062043,720.0,77.3,0.867,169
105407,843798043,736.0,77.3,0.882,169
105504,844574043,776.0,77.3,0.869,169
105599,845334043,760.0,77.3,0.843,169
105693,846086043,752.0,77.3,0.838,169
105793,846886045,800.0,77.3,0.853,169
105894,847694044,807.0,77.3,0.855,169
105991,848470043,775.0,77.3,0.832,169
106088,849246044,776.0,77.3,0.834,169
106186,850030045,784.0,77.3,0.843,169
106284,850814045,784.0,77.3,0.836,169
106375,851542043,727.0,77.3,0.799,169
106470,852302046,760.0,77.3,0.548,185
106622,853518046,1216.0,77.3,0.47,185
106676,853950043,431.0,77.3,0.833,169
106777,854758043,808.0,77.3,0.807,169
106874,855534043,776.0,77.3,0.805,169
106972,856318043,784.0,77.3,0.819,169
107070,857102046,784.0,77.3,0.822,169
107220,858302043,1199.0,77.3,0.439,185
107315,859062043,760.0,77.3,0.456,185
107368,859486046,424.0,77.3,0.825,169
107469,860294043,807.0,77.3,0.812,169
107615,861462043,1168.0,77.3,0.444,185
107710,862222043,760.0,77.3,0.461,185
107810,863022043,800.0,77.3,0.476,185
107862,863438043,416.0,77.3,0.546,185
107964,864254043,816.0,77.3,0.563,185
108062,865038046,784.0,77.3,0.56,185
108165,865862047,824.0,77.3,0.818,169
108269,866694043,831.0,77.3,0.833,169
108367,867478043,784.0,77.3,0.807,169
108462,868238044,760.0,77.3,0.808,169
108560,869022043,783.0,77.3,0.578,185
108658,869806043,784.0,77.3,0.547,185
108851,871350043,1544.0,77.3,0.764,185
108900,871742043,392.0,77.3,0.476,185
109051,872950043,1208.0,77.3,0.311,185
109249,874534045,1584.0,77.3,0.764,185
109350,875342043,807.0,77.3,0.311,185
109547,876918043,1576.0,77.3,0.757,185
109598,877326044,408.0,77.3,0.465,185
109746,878510043,1183.0,77.3,0.765,185
109842,879278045,768.0,77.3,0.75,185
109933,880006043,727.0,77.3,0.751,169
110028,880766043,760.0,77.3,0.782,169
110126,881550043,784.0,77.3,0.792,169
110228,882366043,816.0,77.3,0.77,169
110328,883166043,800.0,77.3,0.757,169
110420,883902043,736.0,77.3,0.762,169
110512,884638043,736.0,77.3,0.815,169
110602,885358043,720.0,77.3,0.829,169
110702,886158043,800.0,77.3,0.814,169
110792,886878043,720.0,77.3,0.826,169
110881,887590047,712.0,77.3,0.857,169
110973,888326046,735.0,77.3,0.864,169
111066,889070043,743.0,77.3,0.856,169
111155,889782043,712.0,77.3,0.827,169
111246,890510043,728.0,77.3,0.82,169
111344,891294043,784.0,77.3,0.823,169
111449,892134043,840.0,77.3,0.828,169
111556,892990043,856.0,77.3,0.822,169
111656,893790043,800.0,77.3,0.826,169
111755,894582044,792.0,77.3,0.845,169
111855,895382043,799.0,77.3,0.853,169
111955,896182045,800.0,77.3,0.848,169
112051,896950046,768.0,77.3,0.826,169
112149,897734043,783.0,77.3,0.838,169
112248,898526043,792.0,77.3,0.847,169
112347,899318046,792.0,77.3,0.838,169
112441,900070043,751.0,77.3,0.801,169
112586,901230043,1160.0,77.3,0.465,185
112636,901630043,400.0,77.3,0.592,185
112784,902814043,1184.0,77.3,0.471,185
112928,903966047,1152.0,77.3,0.301,185
113034,904814044,847.0,77.3,0.813,169
113139,905654043,839.0,77.3,0.829,169
113241,906470043,816.0,77.3,0.822,169
113344,907294046,824.0,77.3,0.836,169
113447,908118043,823.0,77.3,0.849,169
113546,908910043,792.0,77.3,0.83,169
113642,909678043,768.0,77.3,0.83,169
113739,910454043,776.0,77.3,0.839,169
113832,911198043,744.0,77.3,0.82,169
113975,912342043,1144.0,77.3,0.458,185
114109,913414043,1072.0,77.3,0.774,169
114198,914126043,712.0,77.3,0.777,169
114291,914870043,744.0,77.3,0.807,169
114383,915606043,736.0,77.3,0.802,169
114475,916342046,736.0,77.3,0.83,169
114570,917102043,759.0,77.3,0.846,169
114661,917830046,728.0,77.3,0.85,169
114746,918510043,679.0,77.3,0.84,169
114830,919182044,672.0,77.3,0.815,169
114992,920478046,1296.0,77.3,0.797,169
115078,921166043,687.0,77.3,0.839,169
115166,921870043,704.0,77.3,0.858,169
115256,922590043,720.0,77.3,0.861,169
115343,923286046,696.0,77.3,0.841,169
115430,923982043,695.0,77.3,0.843,169
115522,924718043,736.0,77.3,0.835,169
115622,925518044,800.0,77.3,0.834,169
115724,926334043,815.0,77.3,0.824,169
115826,927150043,816.0,77.3,0.807,169
115924,927934043,784.0,77.3,0.806,169
116021,928710043,776.0,77.3,0.83,169
116121,929510043,800.0,77.3,0.835,169
116220,930302043,792.0,77.3,0.832,169
116395,931702043,1400.0,77.3,0.702,169
116474,932334043,632.0,77.3,0.724,169
116552,932958043,624.0,77.3,0.896,169
116632,933598044,640.0,77.3,0.903,169
116714,934254043,655.0,77.3,0.852,169
116875,935542046,1288.0,77.3,0.772,169
116958,936206043,663.0,77.3,0.817,169
117043,936886046,680.0,77.3,0.826,169
117129,937574044,687.0,77.3,0.812,169
117215,938262045,688.0,77.3,0.779,169
117360,939422045,1160.0,77.3,0.433,185
117451,940150043,727.0,77.3,0.474,185
117546,940910043,760.0,77.3,0.476,185
117683,942006047,1096.0,77.3,0.778,169
117775,942742043,735.0,77.3,0.782,169
117863,943446044,704.0,77.3,0.808,169
117953,944166043,719.0,77.3,0.851,169
118045,944902043,736.0,77.3,0.868,169
118135,945622043,720.0,77.3,0.873,169
118223,946326043,704.0,77.3,0.87,169
118309,947014043,688.0,77.3,0.852,169
118470,948302043,1288.0,77.3,0.795,169
118551,948950043,648.0,77.3,0.835,169
118634,949614046,664.0,77.3,0.872,169
118721,950310043,695.0,77.3,0.876,169
118816,951070046,760.0,77.3,0.882,169
118916,951870044,799.0,77.3,0.871,169
119022,952718046,848.0,77.3,0.866,169
119130,953582046,864.0,77.3,0.855,169
119238,954446045,863.0,77.3,0.858,169
119350,955342045,896.0,77.3,0.837,169
119463,956246043,903.0,77.3,0.802,169
119547,956918044,672.0,77.3,0.448,185
119635,957622043,703.0,77.3,0.477,185
119774,958734046,1112.0,77.3,0.762,169
119864,959454043,719.0,77.3,0.765,169
119948,960126045,672.0,77.3,0.833,169
120030,960782043,655.0,77.3,0.879,169
120120,961502043,720.0,77.3,0.892,169
120212,962238043,736.0,77.3,0.877,169
120303,962966045,728.0,77.3,0.848,169
120399,963734044,767.0,77.3,0.844,169
120497,964518046,784.0,77.3,0.837,169
120593,965286043,767.0,77.3,0.815,169
120734,966414045,1128.0,77.3,0.468,185
120835,967222046,808.0,77.3,0.466,185
120930,967982045,759.0,77.3,0.469,185
121029,968774045,792.0,77.3,0.468,185
121172,969918043,1143.0,77.3,0.765,185
121225,970342043,424.0,77.3,0.465,185
121361,971430043,1088.0,77.3,0.768,169
121450,972142044,712.0,77.3,0.789,169
121542,972878043,735.0,77.3,0.822,169
121634,973614043,736.0,77.3,0.836,169
121724,974334043,720.0,77.3,0.852,169
121822,975118043,784.0,77.3,0.86,169
121922,975918043,800.0,77.3,0.847,169
122020,976702043,784.0,77.3,0.848,169
122114,977454047,752.0,77.3,0.846,169
122209,978214045,759.0,77.3,0.87,169
122299,978934043,719.0,77.3,0.862,169
122385,979622046,688.0,77.3,0.832,169
122525,980742046,1120.0,77.3,0.465,185
122622,981518043,775.0,77.3,0.46,185
122720,982302043,784.0,77.3,0.463,185
122824,983134043,832.0,77.3,0.45,185
122873,983526046,392.0,77.3,0.553,185
123022,984718043,1191.0,77.3,0.452,185
123164,985854043,1136.0,77.3,0.773,185
123217,986278043,424.0,77.3,0.462,185
123360,987422043,1144.0,77.3,0.769,185
123456,988190046,768.0,77.3,0.772,185
123547,988918043,727.0,77.3,0.77,169
123635,989622046,704.0,77.3,0.8,169
123724,990334043,711.0,77.3,0.827,169
123817,991078047,744.0,77.3,0.848,169
123910,991822043,743.0,77.3,0.849,169
124005,992582046,760.0,77.3,0.875,169
124103,993366046,784.0,77.3,0.862,169
124199,994134046,768.0,77.3,0.852,169
124296,994910043,775.0,77.3,0.87,169
124394,995694045,784.0,77.3,0.869,169
124488,996446047,752.0,77.3,0.855,169
124582,997198043,751.0,77.3,0.859,169
124672,997918043,720.0,77.3,0.826,169
124845,999302045,1384.0,77.3,0.792,169
124894,999694045,392.0,77.3,0.518,169
125014,1000654044,959.0,77.3,0.832,169
125093,1001286045,632.0,77.3,0.865,169
125170,1001902046,616.0,77.3,0.836,169
125296,1002910043,1007.0,77.3,0.497,185
125384,1003614043,704.0,77.3,0.505,169
125535,1004822043,1208.0,77.3,0.771,169
125587,1005238045,416.0,77.3,0.49,185
125685,1006022043,783.0,77.3,0.491,185
125837,1007238043,1216.0,77.3,0.755,169
125937,1008038045,800.0,77.3,0.753,169
125990,1008462043,423.0,77.3,0.478,185
126136,1009630043,1168.0,77.3,0.775,169
126237,1010438046,808.0,77.3,0.769,169
126339,1011254043,815.0,77.3,0.753,185
126435,1012022046,768.0,77.3,0.749,169
126531,1012790043,767.0,77.3,0.781,169
126581,1013190043,400.0,77.3,0.503,169
126718,1014286046,1096.0,77.3,0.787,169
126804,1014974046,688.0,77.3,0.821,169
126892,1015678047,704.0,77.3,0.858,169
126983,1016406043,727.0,77.3,0.882,169
127073,1017126044,720.0,77.3,0.871,169
127162,1017838043,711.0,77.3,0.857,169
127258,1018606046,768.0,77.3,0.847,169
127354,1019374043,767.0,77.3,0.831,169
127447,1020118047,744.0,77.3,0.812,169
127544,1020894043,775.0,77.3,0.556,185
127693,1022086046,1192.0,77.3,0.467,185
127743,1022486045,399.0,77.3,0.553,185
127895,1023702046,1216.0,77.3,0.451,185
127942,1024078043,375.0,77.3,0.559,185
128135,1025622043,1544.0,77.3,0.762,185
128230,1026382047,760.0,77.3,0.762,185
128323,1027126043,743.0,77.3,0.786,169
128417,1027878043,752.0,77.3,0.79,169
128514,1028654047,776.0,77.3,0.791,169
128613,1029446043,791.0,77.3,0.775,169
128711,1030230046,784.0,77.3,0.774,169
128811,1031030047,800.0,77.3,0.786,169
128863,1031446043,415.0,77.3,0.504,169
128965,1032262043,816.0,77.3,0.504,169
129114,1033454044,1192.0,77.3,0.764,169
129215,1034262046,808.0,77.3,0.77,169
129315,1035062043,799.0,77.3,0.763,169
129416,1035870043,808.0,77.3,0.772,169
129468,1036286047,416.0,77.3,0.492,185
129620,1037502043,1215.0,77.3,0.753,185
129722,1038318043,816.0,77.3,0.767,185
129821,1039110043,792.0,77.3,0.775,185
129871,1039510043,400.0,77.3,0.49,185
130022,1040718046,1208.0,77.3,0.754,185
130122,1041518046,800.0,77.3,0.763,185
130222,1042318043,799.0,77.3,0.758,185
130274,1042734043,416.0,77.3,0.468,185
130418,1043886043,1152.0,77.3,0.77,185
130514,1044654046,768.0,77.3,0.761,185
130605,1045382043,727.0,77.3,0.771,169
130697,1046118047,736.0,77.3,0.791,169
130786,1046830045,711.0,77.3,0.807,169
130873,1047526047,696.0,77.3,0.847,169
130964,1048254044,727.0,77.3,0.869,169
131058,1049006043,751.0,77.3,0.872,169
131156,1049790046,784.0,77.3,0.865,169
131254,1050574043,783.0,77.3,0.848,169
131352,1051358043,784.0,77.3,0.863,169
131453,1052166043,808.0,77.3,0.868,169
131553,1052966047,800.0,77.3,0.849,169
131651,1053750045,783.0,77.3,0.87,169
131751,1054550043,799.0,77.3,0.86,169
131848,1055326045,776.0,77.3,0.858,169
131941,1056070046,744.0,77.3,0.86,169
132038,1056846046,776.0,77.3,0.865,169
132136,1057630046,784.0,77.3,0.86,169
132231,1058390046,760.0,77.3,0.838,169
132326,1059150045,759.0,77.3,0.829,169
132425,1059942043,791.0,77.3,0.846,169
132527,1060758043,816.0,77.3,0.845,169
132631,1061590047,832.0,77.3,0.851,169
132731,1062390043,799.0,77.3,0.828,169
132832,1063198047,808.0,77.3,0.845,169
132932,1063998046,799.0,77.3,0.85,169
133030,1064782045,783.0,77.3,0.854,169
133132,1065598043,815.0,77.3,0.856,169
133233,1066406047,808.0,77.3,0.846,169
133325,1067142043,735.0,77.3,0.833,169
133414,1067854046,712.0,77.3,0.827,169
133553,1068966045,1111.0,77.3,0.467,185
133670,1069902045,936.0,77.3,0.816,169
133756,1070590045,688.0,77.3,0.854,169
133843,1071286047,696.0,77.3,0.872,169
133928,1071966046,679.0,77.3,0.86,169
134010,1072622045,655.0,77.3,0.818,169
134190,1074062043,1439.0,77.3,0.763,185
134277,1074758047,696.0,77.3,0.782,169
134368,1075486044,727.0,77.3,0.802,169
134461,1076230046,744.0,77.3,0.809,169
134553,1076966043,735.0,77.3,0.823,169
134644,1077694046,728.0,77.3,0.847,169
134738,1078446043,751.0,77.3,0.874,169
134835,1079222046,776.0,77.3,0.87,169
134936,1080030047,808.0,77.3,0.867,169
135037,1080838047,808.0,77.3,0.847,169
135139,1081654045,815.0,77.3,0.839,169
135233,1082406045,752.0,77.3,0.837,169
135322,1083118045,712.0,77.3,0.876,169
135411,1083830043,711.0,77.3,0.854,169
135583,1085206043,1376.0,77.3,0.774,185
135668,1085886043,680.0,77.3,0.794,169
135755,1086582046,696.0,77.3,0.842,169
135852,1087358043,775.0,77.3,0.837,169
135950,1088142043,784.0,77.3,0.817,169
136046,1088910046,768.0,77.3,0.815,169
136145,1089702043,791.0,77.3,0.829,169
136248,1090526047,824.0,77.3,0.814,169
136349,1091334044,807.0,77.3,0.81,169
136458,1092206043,871.0,77.3,0.794,169
136502,1092558047,352.0,77.3,0.486,185
136618,1093486046,927.0,77.3,0.51,169
136691,1094070046,584.0,77.3,0.826,169
136814,1095054044,983.0,77.3,0.863,169
136930,1095982043,927.0,77.3,0.847,169
137044,1096894046,912.0,77.3,0.829,169
137157,1097798043,903.0,77.3,0.816,169
137210,1098222046,424.0,77.3,0.505,169
137376,1099550043,1327.0,77.3,0.785,185
137383,1099606043,56.0,77.3,0.514,189
137487,1100438046,832.0,77.3,0.843,169
137599,1101334043,895.0,77.3,0.867,169
137709,1102214046,880.0,77.3,0.867,169
137810,1103022043,807.0,77.3,0.841,169
137908,1103806043,784.0,77.3,0.875,169
138005,1104582047,776.0,77.3,0.852,169
138102,1105358047,776.0,77.3,0.856,169
138197,1106118047,760.0,77.3,0.839,169
138289,1106854046,735.0,77.3,0.834,169
138383,1107606043,751.0,77.3,0.823,169
138483,1108406043,800.0,77.3,0.821,169
138586,1109230046,824.0,77.3,0.819,169
138690,1110062043,831.0,77.3,0.819,169
138788,1110846047,784.0,77.3,0.823,169
138887,1111638044,791.0,77.3,0.846,169
138987,1112438043,799.0,77.3,0.853,169
139091,1113270043,832.0,77.3,0.852,169
139193,1114086043,816.0,77.3,0.839,169
139295,1114902046,816.0,77.3,0.85,169
139397,1115718043,815.0,77.3,0.858,169
139499,1116534043,816.0,77.3,0.861,169
139603,1117366047,832.0,77.3,0.85,169
139704,1118174043,807.0,77.3,0.84,169
139800,1118942044,768.0,77.3,0.853,169
139897,1119718045,776.0,77.3,0.87,169
139992,1120478046,760.0,77.3,0.848,169
140080,1121182043,703.0,77.3,0.833,169
140247,1122518043,1336.0,77.3,0.783,169
140330,1123182046,664.0,77.3,0.811,169
140416,1123870043,687.0,77.3,0.843,169
140505,1124582046,712.0,77.3,0.862,169
140595,1125302043,719.0,77.3,0.848,169
140683,1126006043,704.0,77.3,0.848,169
140774,1126734046,728.0,77.3,0.844,169
140867,1127478043,743.0,77.3,0.83,169
141043,1128886046,1408.0,77.3,0.759,169
141126,1129550046,664.0,77.3,0.791,169
141204,1130174046,624.0,77.3,0.849,169
141283,1130806047,632.0,77.3,0.869,169
141433,1132006043,1199.0,77.3,0.78,169
141507,1132598043,592.0,77.3,0.836,169
141580,1133182047,584.0,77.3,0.836,169
141725,1134342046,1159.0,77.3,0.799,169
141797,1134918043,575.0,77.3,0.832,169
141871,1135510044,592.0,77.3,0.844,169
142018,1136686046,1176.0,77.3,0.777,169
142089,1137254047,568.0,77.3,0.833,169
142161,1137830043,575.0,77.3,0.796,169
142308,1139006047,1176.0,77.3,0.837,169
142388,1139646043,639.0,77.3,0.87,169
142473,1140326043,680.0,77.3,0.844,169
142559,1141014046,688.0,77.3,0.81,169
142724,1142334043,1319.0,77.3,0.789,169
142800,1142942043,608.0,77.3,0.834,169
142876,1143550047,608.0,77.3,0.863,169
142954,1144174047,624.0,77.3,0.827,169
143118,1145486046,1311.0,77.3,0.792,169
143202,1146158047,672.0,77.3,0.83,169
143292,1146878043,719.0,77.3,0.868,169
143387,1147638043,760.0,77.3,0.866,169
143485,1148422044,784.0,77.3,0.865,169
143586,1149230047,808.0,77.3,0.853,169
143684,1150014047,784.0,77.3,0.848,169
143778,1150766046,751.0,77.3,0.868,169
143877,1151558043,791.0,77.3,0.877,169
143979,1152374046,816.0,77.3,0.873,169
144081,1153190043,815.0,77.3,0.862,169
144177,1153958047,768.0,77.3,0.852,169
144270,1154702043,743.0,77.3,0.866,169
144366,1155470046,768.0,77.3,0.879,169
144467,1156278044,807.0,77.3,0.865,169
144569,1157094047,816.0,77.3,0.846,169
144670,1157902047,808.0,77.3,0.856,169
144769,1158694043,791.0,77.3,0.871,169
144863,1159446047,752.0,77.3,0.856,169
144948,1160126044,679.0,77.3,0.82,169
145123,1161526043,1399.0,77.3,0.778,169
145212,1162238045,712.0,77.3,0.787,169
145304,1162974043,735.0,77.3,0.811,169
145398,1163726043,752.0,77.3,0.822,169
145499,1164534046,808.0,77.3,0.805,169
145599,1165334046,800.0,77.3,0.788,169
145700,1166142043,807.0,77.3,0.796,169
145804,1166974046,832.0,77.3,0.792,169
145856,1167390045,415.0,77.3,0.495,185
146028,1168766043,1375.0,77.3,0.326,185
146137,1169638047,872.0,77.3,0.831,169
146244,1170494043,855.0,77.3,0.871,169
146355,1171382045,888.0,77.3,0.889,169
146466,1172270046,888.0,77.3,0.873,169
146573,1173126043,855.0,77.3,0.862,169
146684,1174014043,888.0,77.3,0.851,169
146799,1174934043,920.0,77.3,0.808,169
146911,1175830043,896.0,77.3,0.784,169
147017,1176678043,848.0,77.3,0.783,185
147122,1177518046,840.0,77.3,0.337,185
147230,1178382043,863.0,77.3,0.835,169
147336,1179230048,848.0,77.3,0.837,169
147432,1179998043,767.0,77.3,0.814,169
147601,1181350043,1352.0,77.3,0.763,169
147686,1182030047,680.0,77.3,0.837,169
147781,1182790047,760.0,77.3,0.843,169
147885,1183622047,832.0,77.3,0.825,169
147997,1184518045,895.0,77.3,0.772,169
148046,1184910044,391.0,77.3,0.488,185
148208,1186206043,1295.0,77.3,0.72,185
148307,1186998051,792.0,77.3,0.717,185
148364,1187454047,455.0,77.3,0.457,185
148495,1188502043,1047.0,77.3,0.788,169
148583,1189206043,704.0,77.3,0.819,169
148668,1189886046,680.0,77.3,0.851,169
148752,1190558044,671.0,77.3,0.879,169
148832,1191198045,640.0,77.3,0.851,169
148994,1192494043,1295.0,77.3,0.788,169
149079,1193174044,680.0,77.3,0.812,169
149165,1193862045,688.0,77.3,0.831,169
149252,1194558045,696.0,77.3,0.876,169
149343,1195286046,728.0,77.3,0.887,169
149441,1196070043,783.0,77.3,0.878,169
149540,1196862046,792.0,77.3,0.867,169
149638,1197646043,783.0,77.3,0.864,169
149734,1198414043,768.0,77.3,0.864,169
149831,1199190043,776.0,77.3,0.853,169
149924,1199934043,744.0,77.3,0.841,169
150019,1200694044,760.0,77.3,0.849,169
150118,1201486043,791.0,77.3,0.856,169
150222,1202318047,832.0,77.3,0.858,169
150330,1203182046,863.0,77.3,0.872,169
150436,1204030047,848.0,77.3,0.869,169
150540,1204862043,831.0,77.3,0.883,169
150646,1205710047,848.0,77.3,0.863,169
150749,1206534046,823.0,77.3,0.847,169
150849,1207334043,799.0,77.3,0.851,169
150951,1208150046,816.0,77.3,0.847,169
151054,1208974043,823.0,77.3,0.831,169
151155,1209782047,808.0,77.3,0.832,169
151258,1210606046,823.0,77.3,0.817,169
151359,1211414046,808.0,77.3,0.814,169
151453,1212166047,752.0,77.3,0.82,169
151548,1212926043,759.0,77.3,0.845,169
151646,1213710047,784.0,77.3,0.853,169
151747,1214518043,807.0,77.3,0.851,169
151850,1215342047,824.0,77.3,0.825,169
151950,1216142043,799.0,77.3,0.821,169
152048,1216926043,784.0,77.3,0.829,169
152152,1217758044,832.0,77.3,0.822,169
152259,1218614044,856.0,77.3,0.818,169
152366,1219470045,856.0,77.3,0.789,169
152466,1220270043,799.0,77.3,0.774,169
152564,1221054047,784.0,77.3,0.794,169
152618,1221486046,431.0,77.3,0.504,169
152721,1222310044,823.0,77.3,0.499,185
152883,1223606043,1295.0,77.3,0.777,185
152986,1224430047,824.0,77.3,0.32,185
153093,1225286043,855.0,77.3,0.828,169
153195,1226102046,816.0,77.3,0.8,169
153294,1226894043,791.0,77.3,0.814,169
153440,1228062045,1168.0,77.3,0.468,185
153531,1228790044,727.0,77.3,0.478,185
153666,1229870043,1079.0,77.3,0.792,169
153765,1230662043,792.0,77.3,0.788,169
153812,1231038047,376.0,77.3,0.5,185
153917,1231878045,839.0,77.3,0.491,185
154020,1232702045,824.0,77.3,0.495,185
154179,1233974043,1271.0,77.3,0.302,185
154289,1234854047,880.0,77.3,0.831,169
154398,1235726043,871.0,77.3,0.857,169
154503,1236566043,840.0,77.3,0.849,169
154610,1237422043,856.0,77.3,0.873,169
154715,1238262047,840.0,77.3,0.871,169
154817,1239078045,815.0,77.3,0.852,169
154917,1239878047,800.0,77.3,0.853,169
155015,1240662047,784.0,77.3,0.862,169
155111,1241430045,767.0,77.3,0.863,169
155203,1242166047,736.0,77.3,0.857,169
155291,1242870045,703.0,77.3,0.84,169
155383,1243606043,735.0,77.3,0.828,169
155478,1244366046,760.0,77.3,0.591,185
155666,1245870043,1503.0,77.3,0.793,185
155717,1246278046,408.0,77.3,0.486,185
155813,1247046046,768.0,77.3,0.486,185
155945,1248102043,1055.0,77.3,0.777,169
156032,1248798043,696.0,77.3,0.826,169
156124,1249534043,736.0,77.3,0.845,169
156220,1250302046,768.0,77.3,0.848,169
156318,1251086043,783.0,77.3,0.839,169
156416,1251870046,784.0,77.3,0.844,169
156517,1252678045,807.0,77.3,0.846,169
156619,1253494043,815.0,77.3,0.835,169
156720,1254302045,808.0,77.3,0.829,169
156819,1255094045,792.0,77.3,0.814,169
156918,1255886043,791.0,77.3,0.831,169
157017,1256678045,792.0,77.3,0.841,169
157118,1257486043,807.0,77.3,0.833,169
157220,1258302046,816.0,77.3,0.815,169
157318,1259086046,784.0,77.3,0.798,169
157413,1259846045,759.0,77.3,0.839,169
157508,1260606046,760.0,77.3,0.855,169
157604,1261374047,768.0,77.3,0.856,169
157698,1262126045,751.0,77.3,0.853,169
157792,1262878047,752.0,77.3,0.866,169
157887,1263638043,759.0,77.3,0.881,169
157986,1264430047,792.0,77.3,0.874,169
158088,1265246043,815.0,77.3,0.863,169
158192,1266078045,832.0,77.3,0.858,169
158294,1266894045,816.0,77.3,0.85,169
158396,1267710043,815.0,77.3,0.853,169
158498,1268526043,816.0,77.3,0.849,169
158599,1269334044,808.0,77.3,0.842,169
158697,1270118045,784.0,77.3,0.851,169
158794,1270894043,775.0,77.3,0.86,169
158890,1271662046,768.0,77.3,0.859,169
158983,1272406043,743.0,77.3,0.848,169
159078,1273166046,760.0,77.3,0.87,169
159175,1273942046,776.0,77.3,0.872,169
159274,1274734046,792.0,77.3,0.867,169
159373,1275526047,792.0,77.3,0.849,169
159474,1276334045,807.0,77.3,0.865,169
159576,1277150047,816.0,77.3,0.867,169
159676,1277950043,799.0,77.3,0.852,169
159782,1278798044,848.0,77.3,0.866,169
159891,1279670045,872.0,77.3,0.861,169
160004,1280574046,904.0,77.3,0.835,169
160111,1281430047,856.0,77.3,0.801,169
160218,1282286047,856.0,77.3,0.8,169
160324,1283134043,847.0,77.3,0.778,169
160424,1283934044,800.0,77.3,0.774,169
160517,1284678043,743.0,77.3,0.75,169
160601,1285350045,672.0,77.3,0.761,169
160683,1286006046,656.0,77.3,0.849,169
160765,1286662043,655.0,77.3,0.86,169
160846,1287310047,648.0,77.3,0.84,169
160978,1288366046,1055.0,77.3,0.509,169
161073,1289126043,759.0,77.3,0.492,185
161215,1290262043,1136.0,77.3,0.764,169
161302,1290958043,696.0,77.3,0.789,169
161394,1291694043,736.0,77.3,0.834,169
161488,1292446043,752.0,77.3,0.844,169
161584,1293214045,768.0,77.3,0.845,169
161674,1293934047,720.0,77.3,0.838,169
161763,1294646046,711.0,77.3,0.87,169
161855,1295382047,736.0,77.3,0.858,169
161951,1296150046,767.0,77.3,0.86,169
162044,1296894043,743.0,77.3,0.811,169
162137,1297638047,744.0,77.3,0.577,185
162283,1298806043,1167.0,77.3,0.473,185
162382,1299598043,792.0,77.3,0.461,185
162527,1300758043,1160.0,77.3,0.745,185
162622,1301518046,760.0,77.3,0.768,185
162670,1301902045,383.0,77.3,0.493,185
162769,1302694046,792.0,77.3,0.5,185
162869,1303494046,800.0,77.3,0.493,185
163019,1304694043,1199.0,77.3,0.746,185
163119,1305494045,800.0,77.3,0.762,185
163169,1305894046,400.0,77.3,0.488,185
163321,1307110043,1215.0,77.3,0.759,185
163419,1307894046,784.0,77.3,0.758,185
163468,1308286044,391.0,77.3,0.491,185
163566,1309070046,784.0,77.3,0.496,185
163709,1310214043,1143.0,77.3,0.767,169
163800,1310942043,728.0,77.3,0.781,169
163895,1311702043,760.0,77.3,0.798,169
163991,1312470043,768.0,77.3,0.804,169
164087,1313238047,768.0,77.3,0.793,169
164186,1314030046,791.0,77.3,0.813,169
164288,1314846046,816.0,77.3,0.804,169
164396,1315710043,863.0,77.3,0.781,169
164499,1316534043,824.0,77.3,0.759,169
164600,1317342043,808.0,77.3,0.769,169
164645,1317702045,360.0,77.3,0.495,185
164745,1318502043,799.0,77.3,0.503,169
164850,1319342045,840.0,77.3,0.495,185
164995,1320502043,1159.0,77.3,0.771,169
165084,1321214046,712.0,77.3,0.797,169
165419,1323894043,0.0,0.0,0.806,75
165509,1324614045,720.0,83.3,0.889,73
165920,1327902044,0.0,0.0,0.736,75
166034,1328814043,911.0,65.8,0.817,73
166150,1329742043,928.0,65.2,0.859,73
166265,1330662043,920.0,65.2,0.894,73
166378,1331566043,904.0,65.5,0.901,73
166486,1332430043,864.0,65.8,0.909,73
166777,1334758043,0.0,0.0,0.824,75
166866,1335470044,712.0,84.3,0.886,73
166947,1336118043,647.0,88.2,0.874,73
167028,1336766043,648.0,92.6,0.853,73
167112,1337438043,672.0,90.9,0.885,73
167199,1338134043,696.0,89.3,0.89,73
167289,1338854043,720.0,87.7,0.855,73
167378,1339566043,712.0,86.2,0.864,73
167475,1340342043,776.0,85.2,0.844,73
167572,1341118043,776.0,84.3,0.839,73
167672,1341918043,800.0,84.3,0.796,73
167769,1342694043,776.0,83.3,0.778,73
167866,1343470046,776.0,83.3,0.775,169
167964,1344254043,783.0,83.3,0.768,169
168017,1344678043,424.0,83.3,0.483,185
168105,1345382047,704.0,83.3,0.496,185
168250,1346542046,1159.0,83.3,0.764,185
168309,1347014043,471.0,83.3,0.441,185
168396,1347710043,696.0,83.3,0.463,185
168446,1348110047,400.0,83.3,0.829,169
168542,1348878043,767.0,77.6,0.845,73
168639,1349654043,776.0,77.3,0.857,73
168734,1350414043,760.0,77.3,0.865,73
168826,1351150043,736.0,77.3,0.861,73
168923,1351926043,776.0,77.3,0.879,73
169021,1352710043,784.0,77.3,0.876,73
169124,1353534044,824.0,77.3,0.866,73
169228,1354366046,832.0,77.3,0.838,73
169326,1355150044,783.0,77.3,0.852,73
169419,1355894044,744.0,77.3,0.838,73
169509,1356614044,720.0,77.3,0.854,73
169597,1357318043,703.0,77.3,0.861,73
169685,1358022046,704.0,77.3,0.84,73
169774,1358734046,712.0,80.6,0.822,73
169948,1360126043,1391.0,80.6,0.769,185
169999,1360534043,408.0,80.6,0.464,185
170082,1361198043,664.0,80.6,0.492,185
170175,1361942043,744.0,80.6,0.481,185
170267,1362678044,736.0,80.6,0.476,185
170400,1363742043,1063.0,80.6,0.764,185
170451,1364150046,408.0,80.6,0.478,185
170540,1364862043,711.0,80.6,0.491,185
170633,1365606043,744.0,80.6,0.481,185
170725,1366342045,736.0,80.6,0.473,185
170812,1367038045,696.0,80.6,0.478,185
170944,1368094043,1055.0,80.6,0.771,169
171031,1368790043,696.0,80.6,0.773,73
171118,1369486045,696.0,83.3,0.864,73
171203,1370166045,680.0,84.3,0.871,73
171285,1370822043,655.0,85.2,0.826,73
171365,1371462047,640.0,85.2,0.819,73
171448,1372126044,663.0,86.2,0.835,73
171578,1373166043,1039.0,86.2,0.449,185
171621,1373510043,344.0,86.2,0.856,169
171713,1374246047,736.0,86.2,0.855,169
171807,1374998046,751.0,86.2,0.863,169
171902,1375758045,759.0,86.2,0.837,169
171997,1376518043,759.0,86.2,0.842,169
172091,1377270046,752.0,86.2,0.837,73
172187,1378038043,767.0,86.2,0.864,73
172278,1378766045,728.0,86.2,0.843,73
172364,1379454045,688.0,87.2,0.839,73
172445,1380102043,647.0,88.2,0.852,73
172526,1380750043,648.0,90.4,0.879,73
172602,1381358044,608.0,90.4,0.819,73
172677,1381958043,599.0,90.4,0.824,73
172753,1382566043,608.0,92.6,0.814,73
172901,1383750043,1184.0,92.6,0.753,185
172949,1384134043,384.0,92.6,0.444,185
173059,1385014043,880.0,92.6,0.758,185
173133,1385606045,592.0,92.6,0.744,169
173213,1386246047,640.0,92.6,0.784,169
173258,1386606046,359.0,92.6,0.501,169
173338,1387246043,639.0,92.6,0.488,185
173423,1387926045,680.0,92.6,0.47,185
173526,1388750043,823.0,92.6,0.77,169
173602,1389358043,608.0,92.6,0.765,73
173678,1389966045,608.0,97.2,0.846,73
173763,1390646044,679.0,97.2,0.858,73
173853,1391366045,720.0,97.2,0.84,73
173942,1392078043,711.0,97.2,0.804,73
174033,1392806043,728.0,97.2,0.782,169
174084,1393214043,408.0,97.2,0.478,185
174206,1394190043,976.0,97.2,0.791,185
174254,1394574047,384.0,97.2,0.473,185
174335,1395222044,647.0,97.2,0.457,185
174373,1395526043,303.0,97.2,0.824,169
174451,1396150044,624.0,97.2,0.555,185
174535,1396822043,671.0,97.2,0.845,169
174621,1397510047,688.0,98.7,0.851,73
174702,1398158043,647.0,97.2,0.842,73
174789,1398854043,696.0,92.6,0.867,73
174879,1399574043,720.0,88.2,0.852,73
174979,1400374043,800.0,86.2,0.82,73
175025,1400742043,368.0,86.2,0.495,185
175134,1401614046,872.0,86.2,0.484,185
175195,1402102043,487.0,86.2,0.822,169
175299,1402934043,832.0,86.2,0.853,169
175400,1403742043,808.0,86.2,0.864,169
175496,1404510043,768.0,86.2,0.845,169
175596,1405310046,800.0,85.1,0.828,73
175690,1406062043,751.0,84.3,0.845,73
175783,1406806044,744.0,84.3,0.872,73
175880,1407582046,776.0,83.3,0.874,73
175975,1408342045,759.0,80.6,0.849,73
176065,1409062044,719.0,80.6,0.851,73
176151,1409750043,687.0,80.6,0.851,73
176244,1410494043,744.0,80.6,0.87,73
176343,1411286045,792.0,80.6,0.865,73
176448,1412126044,839.0,79.8,0.846,73
176549,1412934045,808.0,78.9,0.81,73
176654,1413774044,839.0,77.3,0.816,73
176771,1414710046,936.0,77.3,0.808,169
176824,1415134046,424.0,77.3,0.504,169
176942,1416078046,944.0,77.3,0.467,185
176994,1416494045,415.0,77.3,0.829,169
177101,1417350043,855.0,77.3,0.876,169
177210,1418222046,872.0,77.3,0.874,169
177318,1419086043,863.0,78.9,0.868,73
177425,1419942043,856.0,75.8,0.871,73
177534,1420814043,872.0,74.3,0.865,73
177646,1421710045,896.0,71.4,0.827,73
177751,1422550043,839.0,71.4,0.846,73
177863,1423446043,896.0,71.4,0.846,73
177978,1424366046,920.0,70.1,0.818,73
178087,1425238047,872.0,68.8,0.805,73
178197,1426118044,879.0,68.8,0.828,73
178311,1427030043,911.0,68.2,0.817,73
178428,1427966046,936.0,68.2,0.811,169
178541,1428870045,903.0,68.2,0.784,169
178654,1429774043,903.0,68.2,0.806,169
178709,1430214043,440.0,68.2,0.515,169
178823,1431126045,912.0,68.2,0.511,169
178989,1432454047,1328.0,68.2,0.804,169
179043,1432886044,431.0,68.2,0.51,169
179152,1433758047,872.0,68.2,0.512,169
179317,1435078043,1319.0,68.2,0.799,169
179425,1435942043,864.0,67.3,0.805,73
179532,1436798047,856.0,67.3,0.862,73
179636,1437630046,831.0,68.2,0.872,73
179745,1438502043,871.0,68.2,0.881,73
179855,1439382044,880.0,68.2,0.883,73
179960,1440222043,839.0,68.8,0.849,73
180065,1441062046,840.0,68.8,0.872,73
180175,1441942043,879.0,68.8,0.875,73
180286,1442830045,888.0,68.8,0.87,73
180395,1443702047,872.0,68.8,0.883,73
180510,1444622043,919.0,68.8,0.891,73
180627,1445558043,936.0,68.2,0.875,73
180736,1446430046,872.0,68.2,0.866,73
180842,1447278043,847.0,68.8,0.888,73
180951,1448150043,872.0,68.8,0.887,73
181062,1449038043,888.0,68.2,0.87,73
181166,1449870043,832.0,68.8,0.87,73
181264,1450654043,784.0,68.8,0.841,73
181354,1451374043,720.0,68.8,0.804,73
181537,1452838043,1464.0,68.8,0.794,169
181623,1453526043,688.0,68.8,0.826,169
181708,1454206043,680.0,68.8,0.886,169
181796,1454910043,704.0,68.8,0.846,169
181936,1456030045,1120.0,68.8,0.486,185
182071,1457110047,1080.0,68.8,0.783,169
182164,1457854046,743.0,68.8,0.835,73
182260,1458622045,767.0,70.8,0.865,73
182362,1459438043,815.0,72.1,0.848,73
182467,1460278043,840.0,72.1,0.853,73
182582,1461198045,920.0,72.1,0.883,73
182698,1462126043,927.0,72.1,0.844,73
182813,1463046043,920.0,71.4,0.828,73
182914,1463854043,808.0,71.4,0.841,73
183008,1464606043,752.0,71.4,0.846,73
183100,1465342045,736.0,73.5,0.845,73
183194,1466094043,751.0,73.5,0.841,73
183286,1466830043,736.0,74.3,0.833,73
183423,1467926043,1096.0,74.3,0.479,185
183512,1468638046,712.0,74.3,0.496,185
183653,1469766043,1127.0,74.3,0.776,169
183748,1470526043,760.0,74.3,0.785,169
183799,1470934044,408.0,74.3,0.487,185
183893,1471686043,751.0,74.3,0.513,169
184007,1472598045,912.0,74.3,0.49,185
184077,1473158043,559.0,74.3,0.857,169
184200,1474142044,984.0,74.3,0.876,73
184318,1475086046,944.0,74.3,0.865,73
184436,1476030045,943.0,74.3,0.846,73
184553,1476966045,936.0,74.3,0.82,73
184661,1477830044,863.0,73.9,0.802,73
184758,1478606044,776.0,73.9,0.815,73
184851,1479350045,744.0,73.9,0.831,73
184940,1480062045,712.0,73.9,0.862,73
185024,1480734043,671.0,73.9,0.859,73
185108,1481406043,672.0,77.3,0.831,73
185199,1482134043,728.0,80.6,0.834,73
185339,1483254043,1120.0,80.6,0.439,185
185421,1483910047,656.0,80.6,0.477,185
185513,1484646045,735.0,80.6,0.499,185
185580,1485182045,536.0,80.6,0.864,169
185700,1486142047,960.0,80.6,0.857,169
185818,1487086046,943.0,80.6,0.782,169
185872,1487518043,431.0,80.6,0.484,185
186020,1488702043,1184.0,80.6,0.765,185
186116,1489470043,768.0,80.6,0.294,185
186228,1490366046,896.0,80.6,0.858,169
186337,1491238046,872.0,80.6,0.876,73
186445,1492102045,863.0,80.6,0.858,73
186557,1492998044,895.0,80.6,0.837,73
186666,1493870043,871.0,80.6,0.803,73
186771,1494710043,840.0,80.6,0.783,169
186820,1495102043,392.0,80.6,0.49,185
186981,1496390043,1288.0,80.6,0.305,185
187091,1497270043,880.0,80.6,0.833,169
187201,1498150043,880.0,80.6,0.88,169
187304,1498974043,824.0,82.3,0.873,73
187407,1499798045,824.0,79.1,0.86,73
187505,1500582046,784.0,76.5,0.815,73
187605,1501382045,799.0,75.0,0.868,73
187705,1502182045,800.0,75.0,0.865,73
187814,1503054043,871.0,72.8,0.855,73
187920,1503902043,848.0,72.8,0.811,73
188012,1504638043,736.0,75.0,0.846,73
188105,1505382045,744.0,75.0,0.848,73
188204,1506174043,791.0,75.0,0.894,73
188307,1506998043,824.0,75.0,0.878,73
188412,1507838043,840.0,75.0,0.854,73
188521,1508710046,872.0,72.8,0.846,73
188632,1509598043,887.0,71.4,0.846,73
188748,1510526043,928.0,71.4,0.831,73
188856,1511390043,864.0,71.4,0.831,73
188961,1512230044,840.0,71.4,0.842,73
189064,1513054045,824.0,71.4,0.848,73
189169,1513894046,840.0,71.4,0.845,73
189275,1514742047,848.0,70.8,0.831,73
189381,1515590045,847.0,70.8,0.838,73
189488,1516446043,855.0,70.8,0.846,73
189597,1517318043,872.0,70.8,0.844,73
189711,1518230043,912.0,70.8,0.835,73
189829,1519174043,944.0,70.8,0.804,73
189936,1520030043,856.0,70.1,0.8,73
190036,1520830044,800.0,70.1,0.83,73
190134,1521614043,783.0,70.1,0.848,73
190227,1522358045,744.0,70.1,0.86,73
190315,1523062046,704.0,70.1,0.838,73
190406,1523790043,727.0,75.0,0.825,73
190504,1524574044,784.0,76.5,0.823,73
190604,1525374043,799.0,76.5,0.824,73
190699,1526134043,760.0,76.5,0.823,73
190801,1526950043,816.0,76.5,0.853,73
190911,1527830043,880.0,76.5,0.867,73
191023,1528726043,896.0,76.5,0.866,73
191136,1529630043,904.0,75.0,0.851,73
191241,1530470046,840.0,73.5,0.837,73
191345,1531302045,831.0,72.1,0.861,73
191452,1532158043,855.0,71.4,0.845,73
191562,1533038043,880.0,70.1,0.848,73
191674,1533934043,896.0,68.2,0.828,73
191779,1534774045,840.0,68.2,0.837,73
191880,1535582044,807.0,70.1,0.851,73
191979,1536374044,792.0,71.4,0.852,73
192080,1537182043,807.0,71.4,0.86,73
192173,1537926043,744.0,72.1,0.848,73
192262,1538638046,712.0,74.3,0.825,73
192397,1539718046,1080.0,74.3,0.5,169
192452,1540158046,440.0,74.3,0.546,185
192555,1540982047,824.0,74.3,0.819,169
192661,1541830043,847.0,74.3,0.822,169
192761,1542630043,800.0,74.3,0.82,169
192865,1543462043,832.0,74.3,0.845,169
192969,1544294046,832.0,74.3,0.855,73
193076,1545150044,855.0,74.3,0.861,73
193182,1545998043,847.0,74.3,0.859,73
193283,1546806043,808.0,74.3,0.854,73
193378,1547566045,760.0,74.3,0.859,73
193475,1548342046,776.0,74.3,0.869,73
193574,1549134045,791.0,75.8,0.864,73
193672,1549918045,784.0,75.8,0.851,73
193767,1550678043,759.0,75.8,0.847,73
193863,1551446043,768.0,76.5,0.869,73
193959,1552214043,768.0,77.3,0.864,73
194054,1552974043,760.0,78.1,0.847,73
194143,1553686046,712.0,78.1,0.819,73
194231,1554390043,703.0,78.1,0.828,73
194327,1555158043,768.0,78.1,0.85,73
194431,1555990043,832.0,78.1,0.871,73
194544,1556894043,904.0,78.1,0.876,73
194662,1557838045,944.0,78.1,0.83,73
194778,1558766047,928.0,78.1,0.798,169
194822,1559118043,351.0,78.1,0.489,185
194943,1560086043,968.0,78.1,0.486,185
195011,1560630043,544.0,78.1,0.844,169
195119,1561494046,864.0,78.1,0.85,169
195224,1562334043,839.0,78.1,0.871,169
195332,1563198043,864.0,78.1,0.883,73
195442,1564078043,880.0,78.1,0.873,73
195553,1564966043,888.0,72.1,0.838,73
195661,1565830046,864.0,69.4,0.838,73
195774,1566734043,903.0,68.2,0.813,73
195887,1567638043,904.0,67.6,0.846,73
195997,1568518043,880.0,67.6,0.843,73
196107,1569398043,880.0,68.2,0.848,73
196220,1570302046,904.0,68.2,0.844,73
196338,1571246044,943.0,67.6,0.821,73
196458,1572206043,959.0,66.4,0.801,73
196563,1573046043,840.0,66.4,0.816,73
196664,1573854045,808.0,66.4,0.862,73
196764,1574654046,800.0,68.2,0.858,73
196862,1575438045,783.0,68.2,0.866,73
196962,1576238043,799.0,71.4,0.844,73
197073,1577126043,888.0,71.4,0.883,73
197420,1579902043,0.0,0.0,0.795,75
197553,1580966043,1064.0,56.4,0.863,73
197825,1583142045,0.0,0.0,0.783,75
197950,1584142047,1000.0,60.0,0.867,73
198079,1585174044,1031.0,59.1,0.892,73
198210,1586222043,1047.0,58.1,0.884,73
198330,1587182043,960.0,59.1,0.865,73
198447,1588118043,936.0,60.0,0.877,73
198564,1589054043,936.0,61.2,0.863,73
198678,1589966043,912.0,62.5,0.836,73
198790,1590862043,896.0,63.3,0.834,73
198907,1591798044,936.0,64.1,0.845,73
199022,1592718045,920.0,64.1,0.827,73
199185,1594022043,1303.0,64.1,0.491,185
199254,1594574047,552.0,64.1,0.841,169
199386,1595630043,1055.0,64.1,0.873,169
199514,1596654043,1024.0,64.1,0.865,169
199627,1597558043,904.0,64.1,0.869,169
199744,1598494043,936.0,64.1,0.901,73
199861,1599430043,936.0,64.1,0.861,73
199971,1600310043,880.0,64.1,0.859,73
200083,1601206043,896.0,65.2,0.881,73
200195,1602102043,896.0,65.8,0.878,73
200306,1602990044,888.0,67.0,0.873,73
200412,1603838043,847.0,67.0,0.846,73
200518,1604686045,848.0,67.0,0.853,73
200629,1605574044,887.0,67.6,0.86,73
200741,1606470043,895.0,67.6,0.854,73
200851,1607350043,880.0,67.6,0.867,73
200963,1608246043,896.0,67.6,0.878,73
201076,1609150044,904.0,67.6,0.861,73
201186,1610030043,879.0,67.6,0.864,73
201294,1610894043,864.0,68.2,0.862,73
201399,1611734043,840.0,68.2,0.849,73
201509,1612614044,880.0,68.2,0.865,73
201621,1613510044,896.0,68.2,0.87,73
201730,1614382045,872.0,68.2,0.854,73
201839,1615254043,871.0,68.2,0.871,73
201946,1616110046,856.0,68.8,0.864,73
202048,1616926043,815.0,68.8,0.829,73
202148,1617726044,800.0,69.4,0.816,73
202250,1618542047,816.0,70.1,0.823,73
202356,1619390045,847.0,70.1,0.824,73
202507,1620598046,1208.0,70.1,0.471,185
202572,1621118043,519.0,70.1,0.846,169
202692,1622078045,960.0,70.1,0.885,169
202811,1623030043,951.0,70.1,0.872,169
202927,1623958047,928.0,70.1,0.857,169
203046,1624910043,951.0,70.1,0.845,73
203162,1625838047,928.0,70.1,0.874,73
203279,1626774043,935.0,70.1,0.87,73
203399,1627734043,960.0,70.1,0.857,73
203518,1628686045,952.0,65.2,0.822,73
203632,1629598043,911.0,65.2,0.833,73
203748,1630526043,928.0,64.7,0.842,73
203865,1631462043,936.0,64.7,0.836,73
203975,1632342044,880.0,64.7,0.837,73
204083,1633206043,863.0,64.7,0.876,73
204194,1634094043,888.0,64.7,0.885,73
204309,1635014043,920.0,65.2,0.882,73
204423,1635926044,912.0,65.8,0.864,73
204536,1636830045,904.0,65.8,0.886,73
204653,1637766044,935.0,65.8,0.886,73
204766,1638670044,904.0,66.4,0.866,73
204875,1639542043,871.0,66.4,0.885,73
204986,1640430045,888.0,66.4,0.891,73
205102,1641358045,928.0,66.4,0.881,73
205214,1642254045,896.0,66.4,0.875,73
205324,1643134045,880.0,66.4,0.884,73
205437,1644038046,904.0,66.4,0.888,73
205551,1644950045,911.0,66.4,0.883,73
205658,1645806045,856.0,67.0,0.872,73
205765,1646662043,855.0,67.6,0.881,73
205873,1647526043,864.0,67.6,0.874,73
205978,1648366046,840.0,68.2,0.856,73
206093,1649286045,919.0,68.2,0.88,73
206219,1650294043,1007.0,68.2,0.887,73
206345,1651302043,1008.0,66.4,0.836,73
206460,1652222044,920.0,65.8,0.844,73
206573,1653126043,903.0,66.4,0.872,73
206683,1654006043,880.0,66.4,0.872,73
206799,1654934043,928.0,65.2,0.877,73
206916,1655870043,936.0,65.2,0.881,73
207032,1656798043,928.0,64.7,0.861,73
207141,1657670043,872.0,64.7,0.87,73
207251,1658550043,880.0,65.2,0.888,73
207360,1659422043,872.0,66.4,0.876,73
207465,1660262043,840.0,68.2,0.849,73
207568,1661086045,824.0,68.2,0.849,73
207673,1661926043,839.0,68.8,0.851,73
207778,1662766043,840.0,68.8,0.839,73
207880,1663582043,816.0,71.4,0.821,73
208251,1666550047,0.0,0.0,0.804,75
208369,1667494043,943.0,0.0,0.47,185
208762,1670638043,0.0,0.0,0.813,75
208853,1671366043,728.0,82.4,0.86,73
208945,1672102045,736.0,82.0,0.81,73
209035,1672822043,719.0,82.4,0.777,73
209124,1673534043,712.0,82.9,0.773,73
209214,1674254043,720.0,83.3,0.79,73
209303,1674966043,712.0,83.3,0.853,73
209394,1675694043,728.0,83.3,0.894,73
209486,1676430043,736.0,82.9,0.896,73
209573,1677126043,696.0,83.3,0.895,73
209662,1677838043,712.0,83.3,0.899,73
209749,1678534045,696.0,84.3,0.89,73
209838,1679246043,711.0,84.3,0.874,73
209926,1679950043,704.0,84.3,0.876,73
210013,1680646045,696.0,84.3,0.873,73
210096,1681310045,664.0,85.2,0.869,73
210181,1681990047,680.0,86.2,0.883,73
210268,1682686044,695.0,86.2,0.89,73
210359,1683414044,728.0,86.2,0.887,73
210451,1684150043,735.0,86.2,0.883,73
210541,1684870043,720.0,85.2,0.876,73
210636,1685630043,760.0,85.2,0.873,73
210733,1686406043,776.0,83.3,0.852,73
210835,1687222047,816.0,82.4,0.822,73
210941,1688070046,847.0,82.4,0.79,169
210978,1688366043,295.0,82.4,0.504,173
211091,1689270043,904.0,82.4,0.464,185
211192,1690078043,808.0,82.4,0.455,185
211288,1690846043,768.0,82.4,0.451,185
211388,1691646046,800.0,82.4,0.429,185
211483,1692406045,759.0,82.4,0.422,185
211527,1692758046,352.0,82.4,0.818,169
211647,1693718043,959.0,82.4,0.558,169
211753,1694566045,848.0,82.4,0.448,185
211847,1695318044,751.0,82.4,0.444,185
211944,1696094045,776.0,82.4,0.436,185
211999,1696534046,440.0,82.4,0.837,169
212095,1697302046,768.0,81.5,0.835,73
212188,1698046043,743.0,80.6,0.865,73
212281,1698790044,744.0,80.6,0.867,73
212374,1699534043,743.0,80.6,0.872,73
212465,1700262044,728.0,80.6,0.873,73
212551,1700950043,687.0,80.6,0.861,73
212638,1701646043,696.0,80.6,0.869,73
