seq,t_us,raw,avg,filtered,candidate,detector_score,expected_rr_ms,hr_bpm,flags
174020,1392702046,378.0,271.0,48.0,0,0.592,636.0,97.2,1
174021,1392710043,423.0,308.0,78.0,0,0.644,636.0,97.2,1
174022,1392718045,460.0,345.0,109.0,0,0.688,636.0,97.2,1
174023,1392726047,483.0,378.0,140.0,0,0.726,636.0,97.2,1
174024,1392734045,515.0,411.0,172.0,0,0.766,636.0,97.2,1
174025,1392742046,532.0,441.0,202.0,0,0.788,636.0,97.2,1
174026,1392750045,547.0,466.0,231.0,0,0.81,636.0,97.2,1
174027,1392758044,551.0,487.0,256.0,0,0.809,636.0,97.2,1
174028,1392766043,553.0,503.0,278.0,0,0.805,636.0,97.2,1
174029,1392774045,551.0,515.0,297.0,0,0.796,636.0,97.2,1
174030,1392782043,542.0,521.0,311.0,0,0.766,636.0,97.2,1
174031,1392790043,532.0,524.0,322.0,0,0.746,636.0,97.2,1
174032,1392798045,514.0,521.0,328.0,0,0.707,636.0,97.2,1
174033,1392806043,491.0,514.0,330.0,0,0.675,636.0,97.2,1
174034,1392814043,471.0,504.0,327.0,1,0.679,636.0,97.2,17
174035,1392822043,445.0,489.0,321.0,0,0.698,636.0,97.2,17
174036,1392830047,422.0,473.0,311.0,0,0.722,636.0,97.2,17
174037,1392838046,383.0,451.0,297.0,0,0.743,636.0,97.2,17
174038,1392846043,354.0,428.0,280.0,0,0.752,636.0,97.2,17
174039,1392854043,327.0,403.0,261.0,0,0.748,636.0,97.2,17
174040,1392862043,297.0,378.0,239.0,0,0.746,636.0,97.2,17
174041,1392870047,270.0,351.0,216.0,0,0.728,636.0,97.2,17
174042,1392878043,240.0,324.0,191.0,0,0.71,636.0,97.2,17
174043,1392886043,212.0,297.0,166.0,0,0.679,636.0,97.2,17
174044,1392894045,188.0,271.0,140.0,0,0.651,636.0,97.2,17
174045,1392902046,165.0,245.0,114.0,0,0.617,636.0,97.2,17
174046,1392910043,145.0,221.0,89.0,0,0.579,636.0,97.2,17
174047,1392918047,132.0,199.0,64.0,0,0.547,636.0,97.2,17
174048,1392926043,116.0,179.0,41.0,0,0.508,636.0,97.2,17
174049,1392934046,108.0,162.0,20.0,0,0.471,636.0,97.2,17
174050,1392942043,103.0,148.0,0.0,0,0.478,636.0,97.2,17
174051,1392950044,100.0,136.0,-17.0,0,0.477,636.0,97.2,17
174052,1392958043,96.0,126.0,-31.0,0,0.472,636.0,97.2,17
174053,1392966046,96.0,119.0,-44.0,0,0.48,636.0,97.2,17
174054,1392974043,97.0,114.0,-54.0,0,0.47,636.0,97.2,17
174055,1392982046,94.0,109.0,-63.0,0,0.474,636.0,97.2,17
174056,1392990045,98.0,106.0,-69.0,0,0.459,636.0,97.2,17
174057,1392998046,100.0,105.0,-74.0,0,0.458,636.0,97.2,17
174058,1393006043,100.0,104.0,-78.0,0,0.456,636.0,97.2,17
174059,1393014043,103.0,103.0,-81.0,0,0.453,636.0,97.2,17
174060,1393022043,99.0,102.0,-83.0,0,0.448,636.0,97.2,17
174061,1393030047,97.0,101.0,-84.0,0,0.443,636.0,97.2,17
174062,1393038043,92.0,99.0,-86.0,0,0.452,636.0,97.2,17
174063,1393046043,84.0,95.0,-88.0,0,0.455,636.0,97.2,17
174064,1393054043,85.0,93.0,-90.0,0,0.458,636.0,97.2,17
174065,1393062043,76.0,89.0,-92.0,0,0.46,636.0,97.2,17
174066,1393070043,72.0,85.0,-95.0,0,0.471,636.0,97.2,17
174067,1393078043,70.0,81.0,-98.0,0,0.475,636.0,97.2,17
174068,1393086043,60.0,76.0,-101.0,0,0.478,636.0,97.2,17
174069,1393094047,60.0,72.0,-104.0,0,0.482,636.0,97.2,17
174070,1393102043,53.0,67.0,-107.0,0,0.485,636.0,97.2,17
174071,1393110047,52.0,64.0,-111.0,0,0.497,636.0,97.2,17
174072,1393118043,48.0,60.0,-114.0,0,0.493,636.0,97.2,17
174073,1393126045,43.0,56.0,-117.0,0,0.496,636.0,97.2,17
174074,1393134043,40.0,52.0,-120.0,0,0.498,636.0,97.2,17
174075,1393142047,36.0,48.0,-123.0,0,0.501,636.0,97.2,17
174076,1393150043,35.0,45.0,-126.0,0,0.504,636.0,97.2,17
174077,1393158046,35.0,43.0,-129.0,0,0.507,636.0,97.2,17
174078,1393166043,32.0,40.0,-131.0,0,0.501,636.0,97.2,17
174079,1393174045,35.0,39.0,-133.0,0,0.502,636.0,97.2,17
174080,1393182043,33.0,37.0,-134.0,0,0.495,636.0,97.2,17
174081,1393190046,33.0,36.0,-135.0,0,0.495,636.0,97.2,17
174082,1393198043,32.0,35.0,-136.0,0,0.495,636.0,97.2,17
174083,1393206047,36.0,35.0,-136.0,1,0.487,636.0,97.2,17
174084,1393214043,40.0,37.0,-135.0,0,0.492,636.0,97.2,17
174085,1393222043,36.0,36.0,-135.0,1,0.484,636.0,97.2,17
174086,1393230043,40.0,37.0,-134.0,0,0.489,636.0,97.2,17
174087,1393238043,39.0,38.0,-133.0,0,0.487,636.0,97.2,17
174088,1393246043,40.0,38.0,-132.0,0,0.485,636.0,97.2,17
174089,1393254043,47.0,40.0,-130.0,0,0.489,636.0,97.2,17
174090,1393262043,45.0,41.0,-129.0,0,0.479,636.0,97.2,17
174091,1393270047,52.0,44.0,-126.0,0,0.489,636.0,97.2,17
174092,1393278043,55.0,47.0,-124.0,0,0.478,636.0,97.2,17
174093,1393286045,57.0,49.0,-121.0,0,0.481,636.0,97.2,17
174094,1393294043,60.0,52.0,-118.0,0,0.476,636.0,97.2,17
174095,1393302046,64.0,55.0,-115.0,0,0.471,636.0,97.2,17
174096,1393310043,68.0,58.0,-112.0,0,0.466,636.0,97.2,17
174097,1393318047,72.0,61.0,-108.0,0,0.468,636.0,97.2,17
174098,1393326043,80.0,66.0,-104.0,0,0.462,636.0,97.2,17
174099,1393334047,94.0,73.0,-99.0,0,0.463,636.0,97.2,17
174100,1393342046,116.0,83.0,-93.0,0,0.464,636.0,97.2,17
174101,1393350045,140.0,97.0,-84.0,0,0.478,636.0,97.2,17
174102,1393358043,168.0,114.0,-72.0,0,0.488,636.0,97.2,17
174103,1393366043,204.0,136.0,-58.0,0,0.486,636.0,97.2,17
174104,1393374046,247.0,163.0,-40.0,0,0.495,636.0,97.2,17
174105,1393382047,289.0,193.0,-19.0,0,0.49,636.0,97.2,17
174106,1393390044,334.0,228.0,6.0,0,0.53,636.0,97.2,17
174107,1393398043,373.0,263.0,34.0,0,0.579,636.0,97.2,17
174108,1393406044,415.0,300.0,64.0,0,0.626,636.0,97.2,17
174109,1393414043,450.0,336.0,96.0,0,0.676,636.0,97.2,17
174110,1393422043,484.0,372.0,128.0,0,0.716,636.0,97.2,17
174111,1393430043,516.0,407.0,161.0,0,0.759,636.0,97.2,17
174112,1393438043,535.0,438.0,192.0,0,0.785,636.0,97.2,17
174113,1393446043,552.0,466.0,222.0,0,0.809,636.0,97.2,17
174114,1393454043,560.0,488.0,250.0,0,0.823,636.0,97.2,17
174115,1393462043,569.0,508.0,274.0,0,0.818,636.0,97.2,17
174116,1393470043,570.0,523.0,295.0,0,0.812,636.0,97.2,17
174117,1393478043,562.0,532.0,312.0,0,0.792,636.0,97.2,17
174118,1393486043,554.0,538.0,325.0,0,0.767,636.0,97.2,17
174119,1393494047,538.0,538.0,334.0,0,0.737,636.0,97.2,17
174120,1393502043,519.0,533.0,338.0,0,0.696,636.0,97.2,17
174121,1393510043,499.0,525.0,338.0,1,0.664,636.0,97.2,17
174122,1393518043,476.0,513.0,334.0,0,0.691,636.0,97.2,17
174123,1393526046,452.0,498.0,326.0,0,0.717,636.0,97.2,17
174124,1393534047,425.0,481.0,315.0,0,0.733,636.0,97.2,17
174125,1393542046,396.0,460.0,301.0,0,0.747,636.0,97.2,17
174126,1393550043,366.0,437.0,284.0,0,0.755,636.0,97.2,17
174127,1393558047,332.0,412.0,264.0,0,0.758,636.0,97.2,17
174128,1393566047,300.0,385.0,242.0,0,0.749,636.0,97.2,17
174129,1393574046,272.0,357.0,217.0,0,0.74,636.0,97.2,17
174130,1393582046,240.0,329.0,192.0,0,0.71,636.0,97.2,17
174131,1393590046,217.0,302.0,166.0,0,0.683,636.0,97.2,17
174132,1393598045,192.0,275.0,139.0,0,0.653,636.0,97.2,17
174133,1393606046,167.0,249.0,113.0,0,0.614,636.0,97.2,17
174134,1393614046,149.0,225.0,87.0,0,0.58,636.0,97.2,17
174135,1393622045,132.0,202.0,62.0,0,0.542,636.0,97.2,17
174136,1393630043,118.0,182.0,38.0,0,0.508,636.0,97.2,17
174137,1393638043,108.0,164.0,17.0,0,0.47,636.0,97.2,17
174138,1393646043,97.0,148.0,-4.0,0,0.493,636.0,97.2,17
174139,1393654043,97.0,135.0,-21.0,0,0.486,636.0,97.2,17
174140,1393662043,86.0,123.0,-37.0,0,0.499,636.0,97.2,17
174141,1393670045,88.0,115.0,-51.0,0,0.502,636.0,97.2,17
174142,1393678043,84.0,107.0,-63.0,0,0.502,636.0,97.2,17
174143,1393686043,78.0,100.0,-73.0,0,0.499,636.0,97.2,17
174144,1393694045,79.0,95.0,-82.0,0,0.503,636.0,97.2,17
174145,1393702044,80.0,91.0,-89.0,0,0.497,636.0,97.2,17
174146,1393710043,76.0,88.0,-94.0,0,0.488,636.0,97.2,17
174147,1393718043,73.0,84.0,-99.0,0,0.495,636.0,97.2,17
174148,1393726046,69.0,80.0,-104.0,0,0.501,636.0,97.2,17
174149,1393734045,66.0,77.0,-108.0,0,0.499,636.0,97.2,17
174150,1393742043,61.0,73.0,-111.0,0,0.495,636.0,97.2,17
174151,1393750046,60.0,70.0,-115.0,0,0.507,636.0,97.2,17
174152,1393758043,51.0,65.0,-118.0,0,0.503,636.0,97.2,17
174153,1393766045,49.0,61.0,-121.0,0,0.507,636.0,97.2,17
174154,1393774043,44.0,57.0,-125.0,0,0.519,636.0,97.2,17
174155,1393782045,40.0,53.0,-128.0,0,0.515,636.0,97.2,17
174156,1393790047,32.0,48.0,-132.0,0,0.527,636.0,97.2,17
174157,1393798043,33.0,44.0,-135.0,0,0.522,636.0,97.2,17
174158,1393806043,22.0,39.0,-139.0,0,0.534,636.0,97.2,17
174159,1393814045,24.0,35.0,-142.0,0,0.529,636.0,97.2,17
174160,1393822043,20.0,32.0,-145.0,0,0.532,636.0,97.2,17
174161,1393830044,17.0,28.0,-148.0,0,0.535,636.0,97.2,17
174162,1393838043,17.0,25.0,-151.0,0,0.537,636.0,97.2,17
174163,1393846044,14.0,23.0,-153.0,0,0.531,636.0,97.2,17
174164,1393854043,13.0,20.0,-155.0,0,0.532,636.0,97.2,17
174165,1393862046,13.0,19.0,-157.0,0,0.533,636.0,97.2,17
174166,1393870043,13.0,17.0,-158.0,0,0.526,636.0,97.2,17
174167,1393878045,15.0,17.0,-159.0,0,0.526,636.0,97.2,17
174168,1393886043,18.0,17.0,-159.0,1,0.518,636.0,97.2,17
174169,1393894043,16.0,17.0,-159.0,0,0.517,636.0,97.2,17
174170,1393902043,17.0,17.0,-158.0,0,0.522,636.0,97.2,17
174171,1393910044,23.0,18.0,-157.0,0,0.52,636.0,97.2,17
174172,1393918043,21.0,19.0,-156.0,0,0.518,636.0,97.2,17
174173,1393926044,27.0,21.0,-154.0,0,0.522,636.0,97.2,17
174174,1393934043,26.0,22.0,-152.0,0,0.519,636.0,97.2,17
174175,1393942045,29.0,24.0,-150.0,0,0.516,636.0,97.2,17
174176,1393950043,32.0,26.0,-148.0,0,0.512,636.0,97.2,17
174177,1393958045,31.0,27.0,-146.0,0,0.509,636.0,97.2,17
174178,1393966043,37.0,29.0,-143.0,0,0.512,636.0,97.2,17
174179,1393974046,38.0,32.0,-140.0,0,0.507,636.0,97.2,17
174180,1393982043,41.0,34.0,-138.0,0,0.496,636.0,97.2,17
174181,1393990044,48.0,37.0,-134.0,0,0.506,636.0,97.2,17
174182,1393998043,52.0,41.0,-131.0,0,0.493,636.0,97.2,17
174183,1394006044,60.0,45.0,-127.0,0,0.495,636.0,97.2,17
174184,1394014043,76.0,53.0,-121.0,0,0.502,636.0,97.2,17
174185,1394022045,93.0,63.0,-115.0,0,0.493,636.0,97.2,17
174186,1394030043,120.0,77.0,-106.0,0,0.506,636.0,97.2,17
174187,1394038043,152.0,95.0,-94.0,0,0.515,636.0,97.2,17
174188,1394046045,186.0,117.0,-79.0,0,0.52,636.0,97.2,17
174189,1394054043,234.0,145.0,-61.0,0,0.519,636.0,97.2,17
174190,1394062043,276.0,177.0,-38.0,0,0.522,636.0,97.2,17
174191,1394070043,326.0,213.0,-12.0,0,0.516,636.0,97.2,17
174192,1394078043,369.0,251.0,17.0,0,0.565,636.0,97.2,17
174193,1394086043,413.0,290.0,49.0,0,0.617,636.0,97.2,17
174194,1394094043,459.0,331.0,83.0,0,0.669,636.0,97.2,17
174195,1394102043,492.0,370.0,119.0,0,0.722,636.0,97.2,17
174196,1394110044,526.0,408.0,154.0,0,0.762,636.0,97.2,17
174197,1394118043,550.0,442.0,189.0,0,0.8,636.0,97.2,17
174198,1394126043,571.0,474.0,222.0,0,0.824,636.0,97.2,17
174199,1394134043,585.0,501.0,252.0,0,0.836,636.0,97.2,17
174200,1394142043,590.0,522.0,280.0,0,0.845,636.0,97.2,17
174201,1394150043,593.0,539.0,304.0,0,0.837,636.0,97.2,17
174202,1394158043,586.0,551.0,323.0,0,0.814,636.0,97.2,17
174203,1394166043,582.0,558.0,339.0,0,0.798,636.0,97.2,17
174204,1394174043,572.0,562.0,350.0,0,0.762,636.0,97.2,17
174205,1394182043,557.0,560.0,357.0,0,0.731,636.0,97.2,17
174206,1394190043,540.0,556.0,360.0,0,0.699,636.0,97.2,17
174207,1394198044,517.0,546.0,359.0,1,0.681,636.0,97.2,17
174208,1394206043,492.0,533.0,353.0,0,0.716,636.0,97.2,17
174209,1394214044,468.0,517.0,344.0,0,0.734,636.0,97.2,17
174210,1394222044,440.0,499.0,332.0,0,0.75,636.0,97.2,17
174211,1394230046,412.0,478.0,317.0,0,0.763,636.0,97.2,17
174212,1394238043,376.0,453.0,298.0,0,0.777,636.0,97.2,17
174213,1394246045,344.0,427.0,277.0,0,0.773,636.0,97.2,17
174214,1394254044,312.0,399.0,254.0,0,0.764,636.0,97.2,17
174215,1394262045,276.0,369.0,228.0,0,0.754,636.0,97.2,17
174216,1394270043,248.0,340.0,201.0,0,0.728,636.0,97.2,17
174217,1394278047,221.0,311.0,174.0,0,0.696,636.0,97.2,17
174218,1394286043,192.0,282.0,146.0,0,0.665,636.0,97.2,17
174219,1394294046,171.0,255.0,118.0,0,0.629,636.0,97.2,17
174220,1394302046,153.0,230.0,91.0,0,0.589,636.0,97.2,17
174221,1394310046,135.0,207.0,65.0,0,0.551,636.0,97.2,17
174222,1394318043,117.0,185.0,40.0,0,0.515,636.0,97.2,17
174223,1394326043,110.0,167.0,17.0,0,0.478,636.0,97.2,17
174224,1394334043,103.0,152.0,-3.0,0,0.481,636.0,97.2,17
174225,1394342043,92.0,137.0,-22.0,0,0.496,636.0,97.2,17
174226,1394350044,86.0,125.0,-39.0,0,0.503,636.0,97.2,17
174227,1394358043,83.0,115.0,-54.0,0,0.507,636.0,97.2,17
174228,1394366043,76.0,105.0,-67.0,0,0.509,636.0,97.2,17
174229,1394374046,72.0,97.0,-78.0,0,0.508,636.0,97.2,17
174230,1394382046,62.0,89.0,-88.0,0,0.513,636.0,97.2,17
174231,1394390043,64.0,83.0,-97.0,0,0.517,636.0,97.2,17
174232,1394398045,55.0,76.0,-105.0,0,0.52,636.0,97.2,17
174233,1394406044,52.0,70.0,-112.0,0,0.521,636.0,97.2,17
174234,1394414043,45.0,64.0,-119.0,0,0.53,636.0,97.2,17
174235,1394422043,37.0,58.0,-125.0,0,0.529,636.0,97.2,17
174236,1394430043,32.0,51.0,-131.0,0,0.536,636.0,97.2,17
174237,1394438046,29.0,46.0,-137.0,0,0.544,636.0,97.2,17
174238,1394446043,22.0,40.0,-142.0,0,0.542,636.0,97.2,17
174239,1394454045,16.0,34.0,-147.0,0,0.547,636.0,97.2,17
174240,1394462043,13.0,29.0,-152.0,0,0.553,636.0,97.2,17
174241,1394470044,11.0,25.0,-156.0,0,0.55,636.0,97.2,17
174242,1394478043,1.0,19.0,-161.0,0,0.562,636.0,97.2,17
174243,1394486043,0.0,14.0,-165.0,0,0.559,636.0,97.2,19
174244,1394494046,0.0,11.0,-169.0,0,0.563,636.0,97.2,19
174245,1394502043,0.0,8.0,-172.0,0,0.558,636.0,97.2,19
174246,1394510046,0.0,6.0,-174.0,0,0.552,636.0,97.2,19
174247,1394518048,0.0,5.0,-176.0,0,0.554,636.0,97.2,19
174248,1394526043,0.0,4.0,-177.0,0,0.547,636.0,97.2,19
174249,1394534045,0.0,3.0,-178.0,0,0.547,636.0,97.2,19
174250,1394542045,0.0,2.0,-178.0,1,0.539,636.0,97.2,19
174251,1394550044,0.0,2.0,-178.0,0,0.538,636.0,97.2,19
174252,1394558047,0.0,1.0,-178.0,0,0.536,636.0,97.2,19
174253,1394566043,0.0,1.0,-178.0,0,0.535,636.0,97.2,19
174254,1394574047,0.0,1.0,-177.0,0,0.54,636.0,97.2,19
174255,1394582044,0.0,1.0,-177.0,1,0.531,636.0,97.2,19
174256,1394590043,0.0,0.0,-176.0,0,0.536,636.0,97.2,19
174257,1394598044,0.0,0.0,-175.0,0,0.534,636.0,97.2,19
174258,1394606045,0.0,0.0,-174.0,0,0.532,636.0,97.2,19
174259,1394614045,0.0,0.0,-173.0,0,0.53,636.0,97.2,19
174260,1394622046,0.0,0.0,-172.0,0,0.527,636.0,97.2,19
174261,1394630047,0.0,0.0,-171.0,0,0.525,636.0,97.2,19
174262,1394638043,0.0,0.0,-170.0,0,0.523,636.0,97.2,19
174263,1394646044,3.0,1.0,-169.0,0,0.521,636.0,97.2,17
174264,1394654046,10.0,3.0,-167.0,0,0.525,636.0,97.2,17
174265,1394662043,9.0,4.0,-165.0,0,0.522,636.0,97.2,17
174266,1394670044,21.0,8.0,-162.0,0,0.525,636.0,97.2,17
174267,1394678044,28.0,13.0,-158.0,0,0.527,636.0,97.2,17
174268,1394686043,45.0,21.0,-153.0,0,0.528,636.0,97.2,17
174269,1394694047,67.0,32.0,-146.0,0,0.534,636.0,97.2,17
174270,1394702043,92.0,47.0,-137.0,0,0.538,636.0,97.2,17
174271,1394710046,127.0,66.0,-124.0,0,0.553,636.0,97.2,17
174272,1394718047,168.0,91.0,-108.0,0,0.555,636.0,97.2,17
174273,1394726047,214.0,121.0,-88.0,0,0.557,636.0,97.2,17
174274,1394734046,260.0,154.0,-64.0,0,0.551,636.0,97.2,17
174275,1394742044,310.0,192.0,-36.0,0,0.537,636.0,97.2,17
174276,1394750043,359.0,233.0,-5.0,0,0.538,636.0,97.2,17
174277,1394758043,399.0,273.0,29.0,0,0.589,636.0,97.2,17
174278,1394766045,444.0,314.0,64.0,0,0.637,636.0,97.2,17
174279,1394774046,476.0,354.0,101.0,0,0.69,636.0,97.2,17
174280,1394782043,505.0,390.0,137.0,0,0.731,636.0,97.2,17
174281,1394790047,528.0,424.0,171.0,0,0.763,636.0,97.2,17
174282,1394798045,547.0,454.0,204.0,0,0.793,636.0,97.2,17
174283,1394806046,556.0,478.0,234.0,0,0.808,636.0,97.2,17
174284,1394814043,559.0,498.0,261.0,0,0.814,636.0,97.2,17
174285,1394822043,556.0,512.0,283.0,0,0.8,636.0,97.2,17
174286,1394830043,552.0,522.0,301.0,0,0.783,636.0,97.2,17
174287,1394838047,541.0,526.0,314.0,0,0.752,636.0,97.2,17
174288,1394846046,524.0,526.0,323.0,0,0.724,636.0,97.2,17
174289,1394854044,508.0,521.0,327.0,0,0.686,636.0,97.2,17
174290,1394862046,484.0,512.0,327.0,1,0.655,636.0,97.2,17
174291,1394870043,464.0,501.0,323.0,0,0.68,636.0,97.2,17
174292,1394878045,437.0,485.0,316.0,0,0.697,636.0,97.2,17
174293,1394886047,410.0,467.0,304.0,0,0.727,636.0,97.2,17
174294,1394894043,380.0,446.0,290.0,0,0.731,636.0,97.2,17
174295,1394902043,347.0,422.0,272.0,0,0.744,636.0,97.2,17
174296,1394910046,316.0,396.0,252.0,0,0.739,636.0,97.2,17
174297,1394918046,282.0,369.0,229.0,0,0.735,636.0,97.2,17
174298,1394926043,246.0,339.0,204.0,0,0.719,636.0,97.2,17
174299,1394934046,222.0,311.0,178.0,0,0.695,636.0,97.2,17
174300,1394942044,188.0,281.0,150.0,0,0.671,636.0,97.2,17
174301,1394950043,164.0,252.0,122.0,0,0.635,636.0,97.2,17
174302,1394958047,144.0,226.0,95.0,0,0.596,636.0,97.2,17
174303,1394966046,124.0,201.0,68.0,0,0.563,636.0,97.2,17
174304,1394974043,106.0,178.0,43.0,0,0.523,636.0,97.2,17
174305,1394982045,91.0,157.0,19.0,0,0.49,636.0,97.2,17
174306,1394990043,80.0,138.0,-4.0,0,0.488,636.0,97.2,17
174307,1394998043,70.0,122.0,-25.0,0,0.498,636.0,97.2,17
174308,1395006043,57.0,106.0,-44.0,0,0.507,636.0,97.2,17
174309,1395014043,53.0,93.0,-61.0,0,0.514,636.0,97.2,17
174310,1395022043,46.0,82.0,-76.0,0,0.518,636.0,97.2,17
174311,1395030043,44.0,73.0,-89.0,0,0.52,636.0,97.2,17
174312,1395038044,36.0,64.0,-101.0,0,0.527,636.0,97.2,17
174313,1395046043,32.0,56.0,-112.0,0,0.533,636.0,97.2,17
174314,1395054043,35.0,51.0,-120.0,0,0.521,636.0,97.2,17
174315,1395062045,28.0,45.0,-128.0,0,0.531,636.0,97.2,17
174316,1395070043,26.0,41.0,-134.0,0,0.523,636.0,97.2,17
174317,1395078047,20.0,36.0,-140.0,0,0.53,636.0,97.2,17
174318,1395086043,18.0,31.0,-145.0,0,0.529,636.0,97.2,17
174319,1395094043,18.0,28.0,-149.0,0,0.527,636.0,97.2,17
174320,1395102043,13.0,24.0,-153.0,0,0.531,636.0,97.2,17
174321,1395110043,11.0,21.0,-156.0,0,0.527,636.0,97.2,17
174322,1395118045,3.0,17.0,-159.0,0,0.531,636.0,97.2,17
174323,1395126043,4.0,14.0,-162.0,0,0.534,636.0,97.2,17
174324,1395134045,0.0,10.0,-165.0,0,0.537,636.0,97.2,19
174325,1395142044,0.0,8.0,-167.0,0,0.532,636.0,97.2,19
174326,1395150043,0.0,6.0,-169.0,0,0.534,636.0,97.2,19
174327,1395158045,0.0,5.0,-170.0,0,0.528,636.0,97.2,19
174328,1395166045,0.0,3.0,-171.0,0,0.528,636.0,97.2,19
174329,1395174044,0.0,3.0,-172.0,0,0.529,636.0,97.2,19
174330,1395182043,0.0,2.0,-172.0,1,0.522,636.0,97.2,19
174331,1395190043,0.0,1.0,-172.0,0,0.521,636.0,97.2,19
174332,1395198045,0.0,1.0,-172.0,0,0.521,636.0,97.2,19
174333,1395206045,0.0,1.0,-172.0,0,0.52,636.0,97.2,19
174334,1395214045,0.0,1.0,-171.0,0,0.525,636.0,97.2,19
174335,1395222044,0.0,0.0,-170.0,0,0.524,636.0,97.2,19
174336,1395230046,0.0,0.0,-170.0,1,0.516,636.0,97.2,19
174337,1395238043,0.0,0.0,-169.0,0,0.521,636.0,97.2,19
174338,1395246043,0.0,0.0,-168.0,0,0.519,636.0,97.2,19
174339,1395254045,0.0,0.0,-167.0,0,0.517,636.0,97.2,19
174340,1395262044,0.0,0.0,-166.0,0,0.515,636.0,97.2,19
174341,1395270046,0.0,0.0,-165.0,0,0.513,636.0,97.2,19
174342,1395278043,0.0,0.0,-164.0,0,0.511,636.0,97.2,19
174343,1395286044,0.0,0.0,-163.0,0,0.509,636.0,97.2,19
174344,1395294044,0.0,0.0,-162.0,0,0.507,636.0,97.2,19
174345,1395302045,0.0,0.0,-161.0,0,0.504,636.0,97.2,19
174346,1395310045,5.0,1.0,-160.0,0,0.502,636.0,97.2,17
174347,1395318047,8.0,3.0,-158.0,0,0.506,636.0,97.2,17
174348,1395326045,11.0,5.0,-156.0,0,0.502,636.0,97.2,17
174349,1395334043,18.0,8.0,-153.0,0,0.505,636.0,97.2,17
174350,1395342045,21.0,11.0,-150.0,0,0.501,636.0,97.2,17
174351,1395350043,37.0,17.0,-146.0,0,0.503,636.0,97.2,17
174352,1395358043,56.0,27.0,-140.0,0,0.51,636.0,97.2,17
174353,1395366045,72.0,38.0,-132.0,0,0.515,636.0,97.2,17
174354,1395374047,101.0,53.0,-122.0,0,0.517,636.0,97.2,17
174355,1395382046,137.0,73.0,-109.0,0,0.524,636.0,97.2,17
174356,1395390047,177.0,99.0,-92.0,0,0.532,636.0,97.2,17
174357,1395398043,220.0,128.0,-72.0,0,0.527,636.0,97.2,17
174358,1395406046,269.0,162.0,-48.0,0,0.522,636.0,97.2,17
174359,1395414043,314.0,199.0,-20.0,0,0.51,636.0,97.2,17
174360,1395422043,357.0,237.0,10.0,0,0.545,636.0,97.2,17
174361,1395430044,400.0,277.0,43.0,0,0.597,636.0,97.2,17
174362,1395438046,437.0,316.0,78.0,0,0.648,636.0,97.2,17
174363,1395446046,470.0,353.0,112.0,0,0.688,636.0,97.2,17
174364,1395454043,502.0,389.0,147.0,0,0.734,636.0,97.2,17
174365,1395462045,523.0,422.0,181.0,0,0.768,636.0,97.2,17
174366,1395470043,536.0,449.0,212.0,0,0.787,636.0,97.2,17
174367,1395478047,546.0,473.0,241.0,0,0.803,636.0,97.2,17
174368,1395486046,544.0,490.0,265.0,0,0.795,636.0,97.2,17
174369,1395494043,547.0,504.0,286.0,0,0.79,636.0,97.2,17
174370,1395502047,542.0,513.0,303.0,0,0.772,636.0,97.2,17
174371,1395510047,533.0,518.0,316.0,0,0.749,636.0,97.2,17
174372,1395518046,516.0,517.0,324.0,0,0.714,636.0,97.2,17
174373,1395526043,494.0,512.0,328.0,0,0.685,636.0,97.2,17
174374,1395534043,475.0,503.0,327.0,1,0.661,636.0,97.2,17
174375,1395542043,451.0,490.0,323.0,0,0.679,636.0,97.2,17
174376,1395550046,425.0,474.0,315.0,0,0.702,636.0,97.2,17
174377,1395558047,396.0,455.0,303.0,0,0.723,636.0,97.2,17
174378,1395566047,365.0,434.0,287.0,0,0.74,636.0,97.2,17
174379,1395574044,336.0,410.0,269.0,0,0.739,636.0,97.2,17
174380,1395582046,307.0,385.0,249.0,0,0.734,636.0,97.2,17
174381,1395590046,278.0,359.0,227.0,0,0.725,636.0,97.2,17
174382,1395598047,240.0,330.0,202.0,0,0.716,636.0,97.2,17
174383,1395606046,212.0,302.0,176.0,0,0.692,636.0,97.2,17
174384,1395614046,191.0,275.0,150.0,0,0.661,636.0,97.2,17
174385,1395622046,160.0,247.0,123.0,0,0.633,636.0,97.2,17
174386,1395630045,143.0,222.0,97.0,0,0.596,636.0,97.2,17
174387,1395638043,119.0,197.0,71.0,0,0.565,636.0,97.2,17
174388,1395646044,104.0,174.0,46.0,0,0.53,636.0,97.2,17
174389,1395654045,91.0,154.0,22.0,0,0.497,636.0,97.2,17
174390,1395662043,76.0,135.0,0.0,0,0.467,636.0,97.2,17
174391,1395670044,74.0,120.0,-20.0,0,0.475,636.0,97.2,17
174392,1395678043,64.0,107.0,-38.0,0,0.481,636.0,97.2,17
174393,1395686043,59.0,95.0,-54.0,0,0.486,636.0,97.2,17
174394,1395694044,56.0,86.0,-68.0,0,0.488,636.0,97.2,17
174395,1395702044,50.0,77.0,-80.0,0,0.487,636.0,97.2,17
174396,1395710043,52.0,71.0,-90.0,0,0.485,636.0,97.2,17
174397,1395718047,44.0,64.0,-99.0,0,0.488,636.0,97.2,17
174398,1395726045,45.0,60.0,-106.0,0,0.482,636.0,97.2,17
174399,1395734045,43.0,56.0,-113.0,0,0.491,636.0,97.2,17
174400,1395742043,36.0,51.0,-118.0,0,0.483,636.0,97.2,17
174401,1395750044,35.0,47.0,-123.0,0,0.489,636.0,97.2,17
174402,1395758043,30.0,43.0,-127.0,0,0.486,636.0,97.2,17
174403,1395766045,28.0,39.0,-131.0,0,0.491,636.0,97.2,17
174404,1395774043,24.0,36.0,-135.0,0,0.496,636.0,97.2,17
174405,1395782047,20.0,32.0,-138.0,0,0.492,636.0,97.2,17
174406,1395790043,16.0,28.0,-141.0,0,0.496,636.0,97.2,17
174407,1395798046,15.0,25.0,-144.0,0,0.499,636.0,97.2,17
174408,1395806045,12.0,22.0,-147.0,0,0.503,636.0,97.2,17
174409,1395814046,8.0,18.0,-150.0,0,0.506,636.0,97.2,17
174410,1395822043,5.0,15.0,-152.0,0,0.502,636.0,97.2,17
174411,1395830043,9.0,14.0,-154.0,0,0.504,636.0,97.2,17
174412,1395838047,7.0,12.0,-155.0,0,0.498,636.0,97.2,17
174413,1395846043,4.0,10.0,-157.0,0,0.507,636.0,97.2,17
174414,1395854043,6.0,9.0,-158.0,0,0.501,636.0,97.2,17
174415,1395862043,2.0,7.0,-158.0,1,0.494,636.0,97.2,17
174416,1395870043,4.0,7.0,-159.0,0,0.502,636.0,97.2,17
174417,1395878043,0.0,5.0,-160.0,0,0.502,636.0,97.2,19
174418,1395886043,0.0,4.0,-160.0,1,0.496,636.0,97.2,19
174419,1395894043,2.0,3.0,-160.0,0,0.495,636.0,97.2,17
174420,1395902047,0.0,3.0,-160.0,0,0.495,636.0,97.2,19
174421,1395910046,0.0,2.0,-160.0,0,0.495,636.0,97.2,19
174422,1395918045,0.0,1.0,-160.0,0,0.494,636.0,97.2,19
174423,1395926045,0.0,1.0,-159.0,0,0.499,636.0,97.2,19
174424,1395934047,0.0,1.0,-159.0,1,0.492,636.0,97.2,19
174425,1395942043,0.0,1.0,-158.0,0,0.497,636.0,97.2,19
174426,1395950043,3.0,1.0,-157.0,0,0.495,636.0,97.2,17
174427,1395958043,10.0,3.0,-156.0,0,0.493,636.0,97.2,17
174428,1395966043,16.0,6.0,-154.0,0,0.497,636.0,97.2,17
174429,1395974045,30.0,12.0,-150.0,0,0.505,636.0,97.2,17
174430,1395982043,52.0,22.0,-144.0,0,0.512,636.0,97.2,17
174431,1395990043,83.0,37.0,-136.0,0,0.517,636.0,97.2,17
174432,1395998044,112.0,55.0,-125.0,0,0.526,636.0,97.2,17
174433,1396006043,150.0,78.0,-110.0,0,0.538,636.0,97.2,17
174434,1396014043,193.0,106.0,-91.0,0,0.543,636.0,97.2,17
174435,1396022047,235.0,137.0,-69.0,0,0.536,636.0,97.2,17
174436,1396030045,280.0,172.0,-43.0,0,0.529,636.0,97.2,17
174437,1396038047,321.0,208.0,-14.0,0,0.512,636.0,97.2,17
174438,1396046046,356.0,244.0,16.0,0,0.538,636.0,97.2,17
174439,1396054046,392.0,280.0,48.0,0,0.583,636.0,97.2,17
174440,1396062043,425.0,315.0,80.0,0,0.622,636.0,97.2,17
174441,1396070045,452.0,348.0,113.0,0,0.666,636.0,97.2,17
174442,1396078043,472.0,378.0,144.0,0,0.696,636.0,97.2,17
174443,1396086047,484.0,404.0,173.0,0,0.72,636.0,97.2,17
174444,1396094045,493.0,425.0,200.0,0,0.74,636.0,97.2,17
174445,1396102043,499.0,443.0,223.0,0,0.741,636.0,97.2,17
174446,1396110046,500.0,457.0,243.0,0,0.74,636.0,97.2,17
174447,1396118046,496.0,466.0,260.0,0,0.734,636.0,97.2,17
174448,1396126045,485.0,471.0,272.0,0,0.708,636.0,97.2,17
174449,1396134047,477.0,472.0,281.0,0,0.693,636.0,97.2,17
174450,1396142045,458.0,469.0,286.0,0,0.667,636.0,97.2,17
174451,1396150044,442.0,462.0,287.0,0,0.639,636.0,97.2,17
174452,1396158045,420.0,452.0,284.0,1,0.65,636.0,97.2,17
174453,1396166043,396.0,439.0,278.0,0,0.666,636.0,97.2,17
174454,1396174045,367.0,421.0,268.0,0,0.688,636.0,97.2,17
174455,1396182046,337.0,401.0,254.0,0,0.705,636.0,97.2,17
174456,1396190046,311.0,379.0,238.0,0,0.705,636.0,97.2,17
174457,1396198043,282.0,355.0,220.0,0,0.702,636.0,97.2,17
174458,1396206044,246.0,329.0,198.0,0,0.705,636.0,97.2,17
174459,1396214043,220.0,303.0,176.0,0,0.681,636.0,97.2,17
174460,1396222043,192.0,276.0,151.0,0,0.669,636.0,97.2,17
174461,1396230046,167.0,249.0,126.0,0,0.639,636.0,97.2,17
174462,1396238043,143.0,224.0,101.0,0,0.608,636.0,97.2,17
174463,1396246043,123.0,199.0,76.0,0,0.577,636.0,97.2,17
174464,1396254043,106.0,177.0,52.0,0,0.543,636.0,97.2,17
174465,1396262043,94.0,157.0,29.0,0,0.51,636.0,97.2,17
174466,1396270043,84.0,139.0,7.0,0,0.479,636.0,97.2,17
174467,1396278044,78.0,124.0,-12.0,0,0.452,636.0,97.2,17
174468,1396286043,71.0,111.0,-29.0,0,0.456,636.0,97.2,17
174469,1396294046,67.0,101.0,-45.0,0,0.467,636.0,97.2,17
174470,1396302043,64.0,92.0,-58.0,0,0.461,636.0,97.2,17
174471,1396310043,61.0,84.0,-69.0,0,0.459,636.0,97.2,17
174472,1396318045,62.0,79.0,-79.0,0,0.463,636.0,97.2,17
174473,1396326043,60.0,74.0,-87.0,0,0.458,636.0,97.2,17
174474,1396334043,57.0,70.0,-93.0,0,0.451,636.0,97.2,17
174475,1396342045,53.0,66.0,-99.0,0,0.459,636.0,97.2,17
174476,1396350043,55.0,63.0,-104.0,0,0.458,636.0,97.2,17
174477,1396358045,52.0,61.0,-108.0,0,0.455,636.0,97.2,17
174478,1396366043,51.0,58.0,-111.0,0,0.452,636.0,97.2,17
174479,1396374043,46.0,55.0,-114.0,0,0.456,636.0,97.2,17
174480,1396382047,40.0,52.0,-117.0,0,0.46,636.0,97.2,17
174481,1396390043,37.0,48.0,-119.0,0,0.456,636.0,97.2,17
174482,1396398045,32.0,44.0,-122.0,0,0.466,636.0,97.2,17
174483,1396406043,29.0,40.0,-125.0,0,0.47,636.0,97.2,17
174484,1396414043,24.0,36.0,-128.0,0,0.474,636.0,97.2,17
174485,1396422046,23.0,33.0,-131.0,0,0.477,636.0,97.2,17
174486,1396430043,20.0,30.0,-134.0,0,0.481,636.0,97.2,17
174487,1396438046,13.0,26.0,-136.0,0,0.477,636.0,97.2,17
174488,1396446043,19.0,24.0,-138.0,0,0.479,636.0,97.2,17
174489,1396454046,12.0,21.0,-141.0,0,0.49,636.0,97.2,17
174490,1396462043,7.0,18.0,-143.0,0,0.485,636.0,97.2,17
174491,1396470043,10.0,16.0,-145.0,0,0.488,636.0,97.2,17
174492,1396478043,2.0,13.0,-147.0,0,0.49,636.0,97.2,17
174493,1396486043,3.0,10.0,-148.0,0,0.485,636.0,97.2,17
174494,1396494045,5.0,9.0,-150.0,0,0.494,636.0,97.2,17
174495,1396502044,4.0,8.0,-151.0,0,0.488,636.0,97.2,17
174496,1396510043,10.0,8.0,-151.0,1,0.482,636.0,97.2,17
174497,1396518043,2.0,7.0,-151.0,0,0.482,636.0,97.2,17
174498,1396526043,9.0,7.0,-151.0,0,0.482,636.0,97.2,17
174499,1396534045,12.0,8.0,-151.0,0,0.482,636.0,97.2,17
174500,1396542045,12.0,9.0,-149.0,0,0.493,636.0,97.2,17
174501,1396550043,17.0,11.0,-148.0,0,0.485,636.0,97.2,17
174502,1396558043,19.0,13.0,-146.0,0,0.489,636.0,97.2,17
174503,1396566044,21.0,15.0,-144.0,0,0.486,636.0,97.2,17
174504,1396574043,25.0,17.0,-141.0,0,0.49,636.0,97.2,17
174505,1396582045,26.0,19.0,-139.0,0,0.48,636.0,97.2,17
174506,1396590043,32.0,23.0,-136.0,0,0.483,636.0,97.2,17
174507,1396598043,36.0,26.0,-132.0,0,0.485,636.0,97.2,17
174508,1396606045,38.0,29.0,-129.0,0,0.475,636.0,97.2,17
174509,1396614047,42.0,32.0,-125.0,0,0.477,636.0,97.2,17
174510,1396622043,45.0,35.0,-122.0,0,0.466,636.0,97.2,17
174511,1396630043,52.0,39.0,-118.0,0,0.468,636.0,97.2,17
174512,1396638047,52.0,42.0,-114.0,0,0.463,636.0,97.2,17
174513,1396646043,68.0,49.0,-109.0,0,0.463,636.0,97.2,17
174514,1396654043,80.0,56.0,-103.0,0,0.463,636.0,97.2,17
174515,1396662045,101.0,67.0,-96.0,0,0.462,636.0,97.2,17
174516,1396670045,131.0,83.0,-86.0,0,0.472,636.0,97.2,17
174517,1396678045,162.0,102.0,-73.0,0,0.479,636.0,97.2,17
174518,1396686043,197.0,125.0,-58.0,0,0.477,636.0,97.2,17
174519,1396694043,243.0,154.0,-38.0,0,0.489,636.0,97.2,17
174520,1396702046,287.0,186.0,-15.0,0,0.483,636.0,97.2,17
174521,1396710043,333.0,222.0,11.0,0,0.519,636.0,97.2,17
174522,1396718043,378.0,259.0,41.0,0,0.573,636.0,97.2,17
174523,1396726043,417.0,298.0,72.0,0,0.616,636.0,97.2,17
174524,1396734043,456.0,336.0,105.0,0,0.666,636.0,97.2,17
174525,1396742043,490.0,373.0,139.0,0,0.712,636.0,97.2,17
174526,1396750043,522.0,409.0,174.0,0,0.756,636.0,97.2,17
174527,1396758043,538.0,441.0,206.0,0,0.779,636.0,97.2,17
174528,1396766045,559.0,469.0,237.0,0,0.804,636.0,97.2,17
174529,1396774047,567.0,493.0,265.0,0,0.813,636.0,97.2,17
174530,1396782043,572.0,512.0,290.0,0,0.815,636.0,97.2,17
174531,1396790043,575.0,527.0,312.0,0,0.811,636.0,97.2,17
174532,1396798043,565.0,536.0,329.0,0,0.787,636.0,97.2,17
174533,1396806043,558.0,542.0,342.0,0,0.765,636.0,97.2,17
174534,1396814043,544.0,542.0,351.0,0,0.739,636.0,97.2,17
174535,1396822043,528.0,539.0,356.0,0,0.711,636.0,97.2,17
174536,1396830043,509.0,532.0,356.0,1,0.676,636.0,97.2,17
174537,1396838043,483.0,520.0,353.0,0,0.694,636.0,97.2,17
174538,1396846047,456.0,504.0,345.0,0,0.726,636.0,97.2,17
174539,1396854047,431.0,487.0,334.0,0,0.742,636.0,97.2,17
174540,1396862045,396.0,465.0,319.0,0,0.763,636.0,97.2,17
174541,1396870046,368.0,441.0,301.0,0,0.773,636.0,97.2,17
174542,1396878043,338.0,416.0,281.0,0,0.771,636.0,97.2,17
174543,1396886043,307.0,390.0,259.0,0,0.766,636.0,97.2,17
174544,1396894046,280.0,363.0,235.0,0,0.757,636.0,97.2,17
174545,1396902046,249.0,335.0,210.0,0,0.737,636.0,97.2,17
174546,1396910045,221.0,308.0,183.0,0,0.719,636.0,97.2,17
174547,1396918046,197.0,281.0,157.0,0,0.683,636.0,97.2,17
174548,1396926046,174.0,255.0,130.0,0,0.656,636.0,97.2,17
174549,1396934047,152.0,230.0,104.0,0,0.618,636.0,97.2,17
174550,1396942044,140.0,208.0,79.0,0,0.582,636.0,97.2,17
174551,1396950045,124.0,188.0,56.0,0,0.542,636.0,97.2,17
174552,1396958043,112.0,169.0,33.0,0,0.515,636.0,97.2,17
174553,1396966046,104.0,154.0,13.0,0,0.474,636.0,97.2,17
174554,1396974043,97.0,140.0,-5.0,0,0.441,636.0,97.2,17
174555,1396982043,91.0,128.0,-21.0,0,0.443,636.0,97.2,17
174556,1396990043,84.0,117.0,-36.0,0,0.453,636.0,97.2,17
174557,1396998044,80.0,108.0,-49.0,0,0.453,636.0,97.2,17
174558,1397006043,75.0,100.0,-60.0,0,0.451,636.0,97.2,17
174559,1397014046,68.0,92.0,-70.0,0,0.456,636.0,97.2,17
174560,1397022043,61.0,85.0,-79.0,0,0.46,636.0,97.2,17
174561,1397030045,56.0,78.0,-88.0,0,0.471,636.0,97.2,17
174562,1397038043,52.0,72.0,-95.0,0,0.465,636.0,97.2,17
174563,1397046045,47.0,66.0,-102.0,0,0.473,636.0,97.2,17
174564,1397054043,31.0,57.0,-109.0,0,0.482,636.0,97.2,17
174565,1397062043,30.0,51.0,-116.0,0,0.491,636.0,97.2,17
174566,1397070043,22.0,44.0,-122.0,0,0.491,636.0,97.2,17
174567,1397078043,15.0,37.0,-129.0,0,0.507,636.0,97.2,17
174568,1397086043,8.0,30.0,-135.0,0,0.508,636.0,97.2,17
174569,1397094045,5.0,24.0,-141.0,0,0.515,636.0,97.2,17
174570,1397102043,0.0,18.0,-146.0,0,0.514,636.0,97.2,19
174571,1397110046,0.0,14.0,-151.0,0,0.52,636.0,97.2,19
174572,1397118043,0.0,10.0,-155.0,0,0.518,636.0,97.2,19
174573,1397126043,0.0,8.0,-159.0,0,0.523,636.0,97.2,19
174574,1397134043,0.0,6.0,-161.0,0,0.511,636.0,97.2,19
174575,1397142043,0.0,4.0,-163.0,0,0.514,636.0,97.2,19
174576,1397150043,0.0,3.0,-165.0,0,0.516,636.0,97.2,19
174577,1397158047,0.0,3.0,-166.0,0,0.511,636.0,97.2,19
174578,1397166045,0.0,2.0,-166.0,1,0.504,636.0,97.2,19
174579,1397174045,0.0,1.0,-166.0,0,0.504,636.0,97.2,19
174580,1397182046,0.0,1.0,-166.0,0,0.504,636.0,97.2,19
174581,1397190047,0.0,1.0,-166.0,0,0.504,636.0,97.2,19
174582,1397198047,0.0,1.0,-165.0,0,0.51,636.0,97.2,19
174583,1397206047,0.0,0.0,-165.0,1,0.503,636.0,97.2,19
174584,1397214043,0.0,0.0,-164.0,0,0.509,636.0,97.2,19
174585,1397222043,0.0,0.0,-163.0,0,0.507,636.0,97.2,19
174586,1397230043,0.0,0.0,-162.0,0,0.506,636.0,97.2,19
174587,1397238043,0.0,0.0,-162.0,1,0.5,636.0,97.2,19
174588,1397246043,0.0,0.0,-161.0,0,0.505,636.0,97.2,19
174589,1397254044,0.0,0.0,-160.0,0,0.504,636.0,97.2,19
174590,1397262046,0.0,0.0,-159.0,0,0.503,636.0,97.2,19
174591,1397270046,9.0,2.0,-157.0,0,0.507,636.0,97.2,17
174592,1397278044,11.0,4.0,-155.0,0,0.504,636.0,97.2,17
174593,1397286043,21.0,8.0,-152.0,0,0.508,636.0,97.2,17
174594,1397294045,23.0,12.0,-149.0,0,0.504,636.0,97.2,17
174595,1397302043,30.0,16.0,-145.0,0,0.506,636.0,97.2,17
174596,1397310043,43.0,23.0,-140.0,0,0.506,636.0,97.2,17
174597,1397318045,49.0,29.0,-135.0,0,0.5,636.0,97.2,17
174598,1397326043,62.0,37.0,-128.0,0,0.506,636.0,97.2,17
174599,1397334043,77.0,47.0,-121.0,0,0.497,636.0,97.2,17
174600,1397342043,91.0,57.0,-112.0,0,0.501,636.0,97.2,17
174601,1397350043,117.0,72.0,-102.0,0,0.496,636.0,97.2,17
174602,1397358046,148.0,90.0,-89.0,0,0.504,636.0,97.2,17
174603,1397366047,182.0,113.0,-73.0,0,0.507,636.0,97.2,17
174604,1397374043,220.0,139.0,-55.0,0,0.5,636.0,97.2,17
174605,1397382046,264.0,169.0,-33.0,0,0.5,636.0,97.2,17
174606,1397390043,308.0,203.0,-7.0,0,0.501,636.0,97.2,17
174607,1397398043,347.0,238.0,20.0,0,0.537,636.0,97.2,17
174608,1397406043,394.0,276.0,51.0,0,0.592,636.0,97.2,17
174609,1397414046,432.0,314.0,83.0,0,0.636,636.0,97.2,17
174610,1397422043,463.0,350.0,116.0,0,0.682,636.0,97.2,17
174611,1397430043,490.0,384.0,149.0,0,0.723,636.0,97.2,17
174612,1397438046,515.0,416.0,181.0,0,0.756,636.0,97.2,17
174613,1397446047,528.0,443.0,211.0,0,0.779,636.0,97.2,17
174614,1397454046,546.0,468.0,239.0,0,0.796,636.0,97.2,17
174615,1397462047,548.0,487.0,264.0,0,0.8,636.0,97.2,17
174616,1397470047,548.0,502.0,286.0,0,0.798,636.0,97.2,17
174617,1397478045,545.0,512.0,303.0,0,0.775,636.0,97.2,17
174618,1397486045,535.0,518.0,317.0,0,0.761,636.0,97.2,17
174619,1397494046,523.0,519.0,326.0,0,0.728,636.0,97.2,17
174620,1397502043,509.0,517.0,331.0,0,0.7,636.0,97.2,17
174621,1397510047,489.0,510.0,333.0,0,0.678,636.0,97.2,17
174622,1397518044,470.0,500.0,330.0,1,0.682,636.0,97.2,17
174623,1397526043,444.0,487.0,324.0,0,0.7,636.0,97.2,17
174624,1397534045,422.0,471.0,314.0,0,0.724,636.0,97.2,17
174625,1397542047,388.0,451.0,301.0,0,0.738,636.0,97.2,17
174626,1397550043,359.0,429.0,285.0,0,0.748,636.0,97.2,17
174627,1397558046,333.0,405.0,267.0,0,0.748,636.0,97.2,17
174628,1397566043,300.0,380.0,246.0,0,0.749,636.0,97.2,17
174629,1397574043,272.0,354.0,223.0,0,0.739,636.0,97.2,17
174630,1397582046,243.0,327.0,199.0,0,0.72,636.0,97.2,17
174631,1397590046,223.0,302.0,174.0,0,0.697,636.0,97.2,17
174632,1397598046,199.0,277.0,149.0,0,0.667,636.0,97.2,17
174633,1397606046,180.0,253.0,124.0,0,0.636,636.0,97.2,17
174634,1397614047,166.0,232.0,101.0,0,0.596,636.0,97.2,17
174635,1397622047,150.0,212.0,78.0,0,0.567,636.0,97.2,17
174636,1397630043,141.0,195.0,57.0,0,0.529,636.0,97.2,17
174637,1397638043,132.0,180.0,38.0,0,0.493,636.0,97.2,17
174638,1397646043,124.0,166.0,20.0,0,0.466,636.0,97.2,17
174639,1397654043,121.0,155.0,4.0,0,0.434,636.0,97.2,17
174640,1397662043,115.0,145.0,-10.0,0,0.425,636.0,97.2,17
174641,1397670043,111.0,137.0,-22.0,0,0.424,636.0,97.2,17
174642,1397678043,108.0,130.0,-33.0,0,0.429,636.0,97.2,17
174643,1397686046,104.0,124.0,-42.0,0,0.424,636.0,97.2,17
174644,1397694043,103.0,119.0,-50.0,0,0.426,636.0,97.2,17
174645,1397702043,100.0,114.0,-57.0,0,0.427,636.0,97.2,17
174646,1397710044,98.0,110.0,-63.0,0,0.428,636.0,97.2,17
174647,1397718043,93.0,106.0,-68.0,0,0.427,636.0,97.2,17
174648,1397726043,85.0,101.0,-73.0,0,0.433,636.0,97.2,17
174649,1397734043,84.0,97.0,-77.0,0,0.431,636.0,97.2,17
174650,1397742043,76.0,92.0,-82.0,0,0.445,636.0,97.2,17
174651,1397750043,76.0,88.0,-86.0,0,0.443,636.0,97.2,17
174652,1397758044,71.0,84.0,-90.0,0,0.449,636.0,97.2,17
174653,1397766045,67.0,80.0,-94.0,0,0.454,636.0,97.2,17
174654,1397774043,59.0,75.0,-98.0,0,0.459,636.0,97.2,17
174655,1397782043,54.0,70.0,-102.0,0,0.465,636.0,97.2,17
174656,1397790043,48.0,64.0,-106.0,0,0.47,636.0,97.2,17
174657,1397798045,47.0,60.0,-110.0,0,0.475,636.0,97.2,17
174658,1397806043,41.0,56.0,-114.0,0,0.48,636.0,97.2,17
174659,1397814045,34.0,50.0,-118.0,0,0.486,636.0,97.2,17
174660,1397822043,32.0,46.0,-122.0,0,0.491,636.0,97.2,17
174661,1397830043,34.0,43.0,-125.0,0,0.488,636.0,97.2,17
174662,1397838043,32.0,40.0,-128.0,0,0.492,636.0,97.2,17
174663,1397846045,28.0,37.0,-131.0,0,0.495,636.0,97.2,17
174664,1397854043,30.0,36.0,-133.0,0,0.491,636.0,97.2,17
174665,1397862046,30.0,34.0,-135.0,0,0.494,624.0,98.7,1
174666,1397870043,30.0,33.0,-136.0,0,0.488,624.0,98.7,1
174667,1397878043,29.0,32.0,-137.0,0,0.49,624.0,98.7,1
174668,1397886045,32.0,32.0,-137.0,1,0.483,624.0,98.7,1
174669,1397894047,31.0,32.0,-137.0,0,0.483,624.0,98.7,1
174670,1397902045,28.0,31.0,-137.0,0,0.483,624.0,98.7,1
174671,1397910043,33.0,31.0,-137.0,0,0.483,624.0,98.7,1
174672,1397918047,32.0,32.0,-136.0,0,0.489,624.0,98.7,1
174673,1397926043,32.0,32.0,-136.0,1,0.482,624.0,98.7,1
174674,1397934043,36.0,33.0,-135.0,0,0.488,624.0,98.7,1
174675,1397942043,36.0,34.0,-133.0,0,0.492,624.0,98.7,1
174676,1397950045,41.0,35.0,-132.0,0,0.484,624.0,98.7,1
174677,1397958043,44.0,37.0,-130.0,0,0.488,624.0,98.7,1
174678,1397966043,48.0,40.0,-127.0,0,0.491,624.0,98.7,1
174679,1397974045,59.0,45.0,-124.0,0,0.487,624.0,98.7,1
174680,1397982045,64.0,49.0,-120.0,0,0.489,624.0,98.7,1
174681,1397990043,78.0,56.0,-115.0,0,0.49,624.0,98.7,1
174682,1397998046,101.0,67.0,-109.0,0,0.49,624.0,98.7,1
174683,1398006043,123.0,81.0,-100.0,0,0.501,624.0,98.7,1
174684,1398014043,153.0,98.0,-88.0,0,0.51,624.0,98.7,1
174685,1398022047,185.0,119.0,-74.0,0,0.508,624.0,98.7,1
174686,1398030043,226.0,145.0,-56.0,0,0.516,624.0,98.7,1
174687,1398038043,263.0,174.0,-36.0,0,0.505,624.0,98.7,1
174688,1398046044,302.0,205.0,-12.0,0,0.503,624.0,98.7,1
174689,1398054043,342.0,238.0,14.0,0,0.516,624.0,98.7,1
174690,1398062044,376.0,272.0,42.0,0,0.558,624.0,98.7,1
174691,1398070043,412.0,306.0,72.0,0,0.605,624.0,98.7,1
174692,1398078043,437.0,337.0,102.0,0,0.644,624.0,98.7,1
174693,1398086043,460.0,367.0,131.0,0,0.677,624.0,98.7,1
174694,1398094044,479.0,394.0,159.0,0,0.707,624.0,98.7,1
174695,1398102043,490.0,417.0,186.0,0,0.734,624.0,98.7,1
174696,1398110043,500.0,437.0,210.0,0,0.744,624.0,98.7,1
174697,1398118043,498.0,452.0,231.0,0,0.747,624.0,98.7,1
174698,1398126047,497.0,463.0,248.0,0,0.736,624.0,98.7,1
174699,1398134043,492.0,470.0,262.0,0,0.726,624.0,98.7,1
174700,1398142044,479.0,472.0,272.0,0,0.703,624.0,98.7,1
174701,1398150043,466.0,471.0,278.0,0,0.676,624.0,98.7,1
174702,1398158043,451.0,466.0,281.0,0,0.655,624.0,98.7,1
174703,1398166046,436.0,459.0,280.0,1,0.64,624.0,98.7,1
174704,1398174043,414.0,448.0,275.0,0,0.665,624.0,98.7,1
174705,1398182043,383.0,432.0,268.0,0,0.674,624.0,98.7,1
174706,1398190043,359.0,414.0,256.0,0,0.704,624.0,98.7,1
174707,1398198043,328.0,393.0,242.0,0,0.706,624.0,98.7,1
174708,1398206043,300.0,371.0,225.0,0,0.712,624.0,98.7,1
174709,1398214043,273.0,347.0,206.0,0,0.707,624.0,98.7,1
174710,1398222044,245.0,322.0,185.0,0,0.696,624.0,98.7,1
174711,1398230043,216.0,297.0,162.0,0,0.681,624.0,98.7,1
174712,1398238043,190.0,271.0,138.0,0,0.657,624.0,98.7,1
174713,1398246043,164.0,245.0,114.0,0,0.626,624.0,98.7,1
174714,1398254043,144.0,220.0,89.0,0,0.599,624.0,98.7,1
174715,1398262043,126.0,198.0,65.0,0,0.562,624.0,98.7,1
174716,1398270046,117.0,178.0,43.0,0,0.523,624.0,98.7,1
174717,1398278043,98.0,159.0,21.0,0,0.496,624.0,98.7,1
174718,1398286045,94.0,143.0,1.0,0,0.463,624.0,98.7,1
174719,1398294046,86.0,129.0,-17.0,0,0.469,624.0,98.7,1
174720,1398302046,81.0,117.0,-33.0,0,0.474,624.0,98.7,1
174721,1398310043,81.0,109.0,-47.0,0,0.476,624.0,98.7,1
174722,1398318043,68.0,99.0,-60.0,0,0.484,624.0,98.7,1
174723,1398326043,72.0,92.0,-70.0,0,0.474,624.0,98.7,1
174724,1398334043,68.0,86.0,-79.0,0,0.477,624.0,98.7,1
174725,1398342043,71.0,83.0,-87.0,0,0.48,624.0,98.7,1
174726,1398350046,72.0,80.0,-92.0,0,0.464,624.0,98.7,1
174727,1398358047,72.0,78.0,-97.0,0,0.47,624.0,98.7,1
174728,1398366046,69.0,76.0,-100.0,0,0.459,624.0,98.7,1
174729,1398374043,70.0,74.0,-103.0,0,0.463,620.8,98.7,1
174730,1398382043,68.0,73.0,-105.0,0,0.459,620.8,98.7,1
174731,1398390043,64.0,71.0,-107.0,0,0.462,628.0,97.2,1
174732,1398398047,56.0,67.0,-110.0,0,0.473,628.0,97.2,1
174733,1398406043,54.0,64.0,-112.0,0,0.469,628.0,97.2,1
174734,1398414044,59.0,63.0,-114.0,0,0.472,628.0,97.2,1
174735,1398422043,55.0,61.0,-115.0,0,0.466,628.0,97.2,1
174736,1398430045,52.0,59.0,-117.0,0,0.476,628.0,97.2,1
174737,1398438043,45.0,55.0,-119.0,0,0.479,628.0,97.2,1
174738,1398446045,44.0,53.0,-120.0,0,0.473,628.0,97.2,1
174739,1398454044,40.0,50.0,-122.0,0,0.483,628.0,97.2,1
174740,1398462046,35.0,46.0,-125.0,0,0.494,628.0,97.2,1
174741,1398470043,35.0,43.0,-127.0,0,0.49,628.0,97.2,1
174742,1398478045,28.0,40.0,-129.0,0,0.493,628.0,97.2,1
174743,1398486044,28.0,37.0,-131.0,0,0.495,628.0,97.2,1
174744,1398494045,26.0,34.0,-133.0,0,0.498,628.0,97.2,1
174745,1398502043,26.0,32.0,-135.0,0,0.501,628.0,97.2,1
174746,1398510044,28.0,31.0,-136.0,0,0.495,628.0,97.2,1
174747,1398518044,27.0,30.0,-137.0,0,0.496,628.0,97.2,1
174748,1398526044,29.0,30.0,-137.0,1,0.49,628.0,97.2,1
174749,1398534044,32.0,30.0,-137.0,0,0.49,628.0,97.2,1
174750,1398542045,29.0,30.0,-137.0,0,0.49,628.0,97.2,1
174751,1398550043,29.0,30.0,-137.0,0,0.49,628.0,97.2,1
174752,1398558047,32.0,30.0,-136.0,0,0.495,628.0,97.2,1
174753,1398566047,40.0,33.0,-135.0,0,0.494,628.0,97.2,1
174754,1398574046,42.0,35.0,-133.0,0,0.499,628.0,97.2,1
174755,1398582044,44.0,37.0,-131.0,0,0.496,628.0,97.2,1
174756,1398590046,48.0,40.0,-128.0,0,0.499,628.0,97.2,1
174757,1398598045,49.0,42.0,-126.0,0,0.489,628.0,97.2,1
174758,1398606045,49.0,44.0,-123.0,0,0.492,628.0,97.2,1
174759,1398614043,51.0,45.0,-120.0,0,0.488,628.0,97.2,1
174760,1398622043,53.0,47.0,-118.0,0,0.477,628.0,97.2,1
174761,1398630044,59.0,50.0,-115.0,0,0.48,628.0,97.2,1
174762,1398638045,57.0,52.0,-112.0,0,0.475,628.0,97.2,1
174763,1398646043,65.0,55.0,-109.0,0,0.471,628.0,97.2,1
174764,1398654043,66.0,58.0,-106.0,0,0.466,628.0,97.2,1
174765,1398662043,70.0,61.0,-103.0,0,0.461,628.0,97.2,1
174766,1398670045,83.0,66.0,-99.0,0,0.463,628.0,97.2,1
174767,1398678046,96.0,73.0,-93.0,0,0.471,628.0,97.2,1
174768,1398686046,116.0,84.0,-87.0,0,0.462,623.2,97.2,1
174769,1398694044,141.0,98.0,-78.0,0,0.475,623.2,97.2,1
174770,1398702043,168.0,115.0,-67.0,0,0.477,623.2,97.2,1
174771,1398710044,208.0,137.0,-52.0,0,0.489,623.2,97.2,1
174772,1398718044,246.0,164.0,-34.0,0,0.488,623.2,97.2,1
174773,1398726043,287.0,194.0,-13.0,0,0.483,623.2,97.2,1
174774,1398734044,337.0,228.0,12.0,0,0.524,623.2,97.2,1
174775,1398742046,378.0,265.0,40.0,0,0.575,623.2,97.2,1
174776,1398750043,423.0,303.0,71.0,0,0.63,623.2,97.2,1
174777,1398758044,460.0,341.0,103.0,0,0.677,623.2,97.2,1
174778,1398766044,496.0,379.0,137.0,0,0.729,623.2,97.2,1
174779,1398774047,525.0,414.0,170.0,0,0.766,623.2,97.2,1
174780,1398782045,549.0,447.0,203.0,0,0.801,623.2,97.2,1
174781,1398790043,568.0,476.0,234.0,0,0.822,623.2,97.2,1
174782,1398798044,577.0,501.0,263.0,0,0.836,623.2,97.2,1
174783,1398806043,589.0,522.0,289.0,0,0.838,623.2,97.2,1
174784,1398814044,590.0,539.0,311.0,0,0.827,623.2,97.2,1
174785,1398822047,584.0,550.0,330.0,0,0.816,623.2,97.2,1
174786,1398830044,580.0,557.0,345.0,0,0.793,623.2,97.2,1
174787,1398838044,567.0,559.0,355.0,0,0.756,623.2,97.2,1
174788,1398846046,553.0,558.0,361.0,0,0.725,623.2,97.2,1
174789,1398854043,536.0,553.0,364.0,0,0.701,623.2,97.2,1
174790,1398862045,516.0,544.0,362.0,1,0.69,623.2,97.2,1
174791,1398870043,495.0,532.0,357.0,0,0.71,623.2,97.2,1
174792,1398878043,466.0,516.0,348.0,0,0.736,623.2,97.2,1
174793,1398886045,440.0,498.0,336.0,0,0.753,623.2,97.2,1
174794,1398894043,411.0,477.0,320.0,0,0.773,623.2,97.2,1
174795,1398902043,379.0,453.0,302.0,0,0.774,623.2,97.2,1
174796,1398910044,348.0,427.0,282.0,0,0.771,623.2,97.2,1
174797,1398918045,316.0,400.0,259.0,0,0.769,623.2,97.2,1
174798,1398926045,287.0,373.0,234.0,0,0.756,623.2,97.2,1
174799,1398934043,253.0,344.0,208.0,0,0.733,623.2,97.2,1
174800,1398942044,228.0,316.0,181.0,0,0.706,623.2,97.2,1
174801,1398950045,205.0,289.0,154.0,0,0.673,623.2,97.2,1
174802,1398958043,177.0,262.0,127.0,0,0.639,623.2,97.2,1
174803,1398966043,164.0,238.0,101.0,0,0.6,623.2,97.2,1
174804,1398974045,147.0,216.0,76.0,0,0.563,623.2,97.2,1
174805,1398982045,133.0,196.0,52.0,0,0.528,623.2,97.2,1
174806,1398990043,123.0,178.0,30.0,0,0.49,623.2,97.2,1
174807,1398998047,108.0,161.0,10.0,0,0.464,624.8,97.2,1
174808,1399006043,104.0,147.0,-9.0,0,0.478,624.8,97.2,1
174809,1399014043,96.0,135.0,-25.0,0,0.475,624.8,97.2,1
174810,1399022045,90.0,124.0,-40.0,0,0.486,649.6,92.6,1
174811,1399030043,87.0,115.0,-53.0,0,0.487,649.6,92.6,1
174812,1399038045,80.0,107.0,-65.0,0,0.494,649.6,92.6,1
174813,1399046044,69.0,97.0,-75.0,0,0.492,649.6,92.6,1
174814,1399054043,68.0,90.0,-85.0,0,0.504,649.6,92.6,1
174815,1399062046,56.0,82.0,-93.0,0,0.499,649.6,92.6,1
174816,1399070043,53.0,75.0,-102.0,0,0.518,649.6,92.6,1
174817,1399078044,46.0,68.0,-109.0,0,0.512,649.6,92.6,1
174818,1399086043,40.0,61.0,-116.0,0,0.521,649.6,92.6,1
174819,1399094044,31.0,54.0,-123.0,0,0.53,649.6,92.6,1
174820,1399102043,27.0,47.0,-130.0,0,0.538,649.6,92.6,1
174821,1399110043,21.0,41.0,-136.0,0,0.538,649.6,92.6,1
174822,1399118045,9.0,33.0,-142.0,0,0.545,649.6,92.6,1
174823,1399126045,9.0,27.0,-148.0,0,0.552,649.6,92.6,1
174824,1399134044,4.0,22.0,-154.0,0,0.559,649.6,92.6,1
174825,1399142046,0.0,16.0,-159.0,0,0.557,649.6,92.6,3
174826,1399150044,0.0,12.0,-163.0,0,0.554,649.6,92.6,3
174827,1399158047,0.0,9.0,-167.0,0,0.558,649.6,92.6,3
174828,1399166043,0.0,7.0,-170.0,0,0.554,649.6,92.6,3
174829,1399174046,0.0,5.0,-172.0,0,0.549,649.6,92.6,3
174830,1399182043,0.0,4.0,-174.0,0,0.551,649.6,92.6,3
174831,1399190044,0.0,3.0,-175.0,0,0.545,649.6,92.6,3
174832,1399198043,0.0,2.0,-176.0,0,0.545,649.6,92.6,3
174833,1399206044,0.0,2.0,-176.0,1,0.538,649.6,92.6,3
174834,1399214046,0.0,1.0,-176.0,0,0.538,649.6,92.6,3
174835,1399222043,0.0,1.0,-176.0,0,0.537,649.6,92.6,3
174836,1399230043,0.0,1.0,-175.0,0,0.542,649.6,92.6,3
174837,1399238046,0.0,1.0,-175.0,1,0.535,649.6,92.6,3
174838,1399246044,0.0,0.0,-174.0,0,0.54,649.6,92.6,3
174839,1399254043,0.0,0.0,-173.0,0,0.538,649.6,92.6,3
174840,1399262043,0.0,0.0,-172.0,0,0.536,649.6,92.6,3
174841,1399270043,0.0,0.0,-171.0,0,0.534,649.6,92.6,3
174842,1399278043,0.0,0.0,-170.0,0,0.532,649.6,92.6,3
174843,1399286044,0.0,0.0,-169.0,0,0.53,649.6,92.6,3
174844,1399294043,7.0,2.0,-168.0,0,0.528,649.6,92.6,1
174845,1399302043,12.0,4.0,-166.0,0,0.532,649.6,92.6,1
174846,1399310043,14.0,7.0,-163.0,0,0.535,657.6,92.6,1
174847,1399318043,20.0,10.0,-160.0,0,0.53,657.6,92.6,1
174848,1399326043,23.0,13.0,-157.0,0,0.526,657.6,92.6,1
174849,1399334045,27.0,16.0,-153.0,0,0.528,657.6,92.6,1
174850,1399342045,28.0,19.0,-150.0,0,0.516,657.6,92.6,1
174851,1399350045,32.0,22.0,-146.0,0,0.518,657.6,92.6,1
174852,1399358045,37.0,26.0,-142.0,0,0.512,657.6,92.6,1
174853,1399366043,42.0,30.0,-138.0,0,0.507,657.6,92.6,1
174854,1399374046,47.0,34.0,-133.0,0,0.508,657.6,92.6,1
174855,1399382045,52.0,38.0,-129.0,0,0.494,657.6,92.6,1
174856,1399390043,66.0,45.0,-123.0,0,0.502,657.6,92.6,1
174857,1399398044,82.0,54.0,-117.0,0,0.493,657.6,92.6,1
174858,1399406043,103.0,66.0,-108.0,0,0.506,657.6,92.6,1
174859,1399414047,131.0,82.0,-98.0,0,0.5,657.6,92.6,1
174860,1399422047,159.0,100.0,-85.0,0,0.507,657.6,92.6,1
174861,1399430043,200.0,125.0,-69.0,0,0.51,657.6,92.6,1
174862,1399438047,240.0,153.0,-49.0,0,0.512,657.6,92.6,1
174863,1399446043,286.0,185.0,-26.0,0,0.503,657.6,92.6,1
174864,1399454046,336.0,222.0,1.0,0,0.526,657.6,92.6,1
174865,1399462046,380.0,260.0,31.0,0,0.577,657.6,92.6,1
174866,1399470047,428.0,301.0,64.0,0,0.632,657.6,92.6,1
174867,1399478044,464.0,340.0,98.0,0,0.681,657.6,92.6,1
174868,1399486043,500.0,379.0,133.0,0,0.729,657.6,92.6,1
174869,1399494043,530.0,416.0,168.0,0,0.771,657.6,92.6,1
174870,1399502047,557.0,450.0,203.0,0,0.807,657.6,92.6,1
174871,1399510043,583.0,482.0,236.0,0,0.83,657.6,92.6,1
174872,1399518047,591.0,509.0,266.0,0,0.84,657.6,92.6,1
174873,1399526043,599.0,530.0,294.0,0,0.849,657.6,92.6,1
174874,1399534045,606.0,549.0,318.0,0,0.84,657.6,92.6,1
174875,1399542043,603.0,562.0,338.0,0,0.823,657.6,92.6,1
174876,1399550046,599.0,571.0,354.0,0,0.8,657.6,92.6,1
174877,1399558044,583.0,574.0,366.0,0,0.773,657.6,92.6,1
174878,1399566046,569.0,573.0,373.0,0,0.734,657.6,92.6,1
174879,1399574043,551.0,567.0,376.0,0,0.702,657.6,92.6,1
174880,1399582046,530.0,558.0,375.0,1,0.685,657.6,92.6,1
174881,1399590043,508.0,546.0,370.0,0,0.712,657.6,92.6,1
174882,1399598044,476.0,529.0,361.0,0,0.738,657.6,92.6,1
174883,1399606043,451.0,510.0,349.0,0,0.754,657.6,92.6,1
174884,1399614044,416.0,487.0,333.0,0,0.775,657.6,92.6,1
174885,1399622043,381.0,462.0,313.0,0,0.789,657.6,92.6,1
174886,1399630046,352.0,435.0,291.0,0,0.784,657.6,92.6,1
174887,1399638047,318.0,407.0,267.0,0,0.775,657.6,92.6,1
174888,1399646045,287.0,378.0,241.0,0,0.761,657.6,92.6,1
174889,1399654043,254.0,348.0,214.0,0,0.738,657.6,92.6,1
174890,1399662045,228.0,319.0,186.0,0,0.711,657.6,92.6,1
174891,1399670043,196.0,289.0,157.0,0,0.681,657.6,92.6,1
174892,1399678044,172.0,261.0,129.0,0,0.641,657.6,92.6,1
174893,1399686043,154.0,235.0,101.0,0,0.606,657.6,92.6,1
174894,1399694043,134.0,210.0,74.0,0,0.568,683.2,88.2,1
174895,1399702043,116.0,187.0,48.0,0,0.532,683.2,88.2,1
174896,1399710044,107.0,168.0,24.0,0,0.494,683.2,88.2,1
174897,1399718047,92.0,150.0,2.0,0,0.482,683.2,88.2,1
174898,1399726043,90.0,135.0,-18.0,0,0.491,683.2,88.2,1
174899,1399734047,76.0,121.0,-36.0,0,0.498,683.2,88.2,1
174900,1399742045,74.0,109.0,-52.0,0,0.503,683.2,88.2,1
174901,1399750043,71.0,100.0,-66.0,0,0.506,683.2,88.2,1
174902,1399758047,61.0,91.0,-78.0,0,0.506,683.2,88.2,1
174903,1399766043,58.0,83.0,-89.0,0,0.512,683.2,88.2,1
174904,1399774043,58.0,77.0,-98.0,0,0.508,683.2,88.2,1
174905,1399782046,51.0,70.0,-107.0,0,0.519,683.2,88.2,1
174906,1399790045,43.0,64.0,-114.0,0,0.513,683.2,88.2,1
174907,1399798044,34.0,57.0,-121.0,0,0.522,683.2,88.2,1
174908,1399806046,33.0,51.0,-128.0,0,0.53,683.2,88.2,1
174909,1399814044,28.0,45.0,-134.0,0,0.53,683.2,88.2,1
174910,1399822044,22.0,40.0,-139.0,0,0.529,683.2,88.2,1
174911,1399830043,16.0,34.0,-145.0,0,0.543,683.2,88.2,1
174912,1399838045,12.0,29.0,-150.0,0,0.542,683.2,88.2,1
174913,1399846043,8.0,24.0,-154.0,0,0.539,683.2,88.2,1
174914,1399854044,0.0,18.0,-159.0,0,0.552,683.2,88.2,3
174915,1399862043,0.0,14.0,-163.0,0,0.549,683.2,88.2,3
174916,1399870046,0.0,10.0,-167.0,0,0.553,683.2,88.2,3
174917,1399878044,0.0,8.0,-170.0,0,0.549,683.2,88.2,3
174918,1399886043,0.0,6.0,-172.0,0,0.544,683.2,88.2,3
174919,1399894047,0.0,4.0,-174.0,0,0.546,683.2,88.2,3
174920,1399902043,0.0,3.0,-175.0,0,0.54,683.2,88.2,3
174921,1399910044,0.0,3.0,-176.0,0,0.541,683.2,88.2,3
174922,1399918043,0.0,2.0,-176.0,1,0.533,683.2,88.2,3
174923,1399926045,0.0,1.0,-176.0,0,0.533,683.2,88.2,3
174924,1399934043,0.0,1.0,-176.0,0,0.532,688.0,88.2,3
174925,1399942043,0.0,1.0,-176.0,0,0.531,688.0,88.2,3
174926,1399950043,0.0,1.0,-175.0,0,0.536,688.0,88.2,3
174927,1399958044,0.0,0.0,-174.0,0,0.534,688.0,88.2,3
174928,1399966043,0.0,0.0,-174.0,1,0.526,688.0,88.2,3
174929,1399974043,0.0,0.0,-173.0,0,0.531,688.0,88.2,3
174930,1399982043,0.0,0.0,-172.0,0,0.529,688.0,88.2,3
174931,1399990043,0.0,0.0,-171.0,0,0.527,688.0,88.2,3
174932,1399998044,0.0,0.0,-170.0,0,0.524,688.0,88.2,3
174933,1400006044,0.0,0.0,-169.0,0,0.522,688.0,88.2,3
174934,1400014043,0.0,0.0,-168.0,0,0.52,688.0,88.2,3
174935,1400022044,0.0,0.0,-167.0,0,0.518,688.0,88.2,3
174936,1400030043,4.0,1.0,-165.0,0,0.522,688.0,88.2,1
174937,1400038043,8.0,3.0,-164.0,0,0.512,688.0,88.2,1
174938,1400046043,12.0,5.0,-162.0,0,0.516,688.0,88.2,1
174939,1400054045,15.0,7.0,-159.0,0,0.519,688.0,88.2,1
174940,1400062045,20.0,10.0,-156.0,0,0.515,688.0,88.2,1
174941,1400070043,28.0,15.0,-152.0,0,0.517,688.0,88.2,1
174942,1400078044,28.0,18.0,-149.0,0,0.505,688.0,88.2,1
174943,1400086043,36.0,22.0,-144.0,0,0.513,688.0,88.2,1
174944,1400094043,38.0,26.0,-140.0,0,0.5,688.0,88.2,1
174945,1400102043,43.0,30.0,-136.0,0,0.494,688.0,88.2,1
174946,1400110045,47.0,34.0,-131.0,0,0.495,688.0,88.2,1
174947,1400118044,50.0,38.0,-126.0,0,0.487,688.0,88.2,1
174948,1400126046,57.0,43.0,-122.0,0,0.474,688.0,88.2,1
174949,1400134043,60.0,47.0,-117.0,0,0.474,688.0,88.2,1
174950,1400142044,64.0,51.0,-112.0,0,0.467,688.0,88.2,1
174951,1400150044,69.0,55.0,-107.0,0,0.46,688.0,88.2,1
174952,1400158047,65.0,58.0,-103.0,0,0.446,688.0,88.2,1
174953,1400166043,74.0,62.0,-98.0,0,0.447,688.0,88.2,1
174954,1400174044,76.0,65.0,-94.0,0,0.433,688.0,88.2,1
174955,1400182044,87.0,70.0,-89.0,0,0.434,688.0,88.2,1
174956,1400190045,96.0,77.0,-84.0,0,0.428,688.0,88.2,1
174957,1400198047,108.0,84.0,-78.0,0,0.428,688.0,88.2,1
174958,1400206046,134.0,96.0,-70.0,0,0.435,688.0,88.2,1
174959,1400214044,162.0,112.0,-60.0,0,0.439,688.0,88.2,1
174960,1400222045,198.0,133.0,-47.0,0,0.449,688.0,88.2,1
174961,1400230043,244.0,160.0,-29.0,0,0.467,688.0,88.2,1
174962,1400238043,290.0,191.0,-8.0,0,0.491,688.0,88.2,1
174963,1400246043,339.0,227.0,17.0,0,0.544,688.0,88.2,1
174964,1400254043,383.0,265.0,45.0,0,0.592,688.0,88.2,1
174965,1400262047,440.0,307.0,78.0,0,0.653,688.0,88.2,1
174966,1400270045,490.0,352.0,113.0,0,0.702,688.0,88.2,1
174967,1400278047,530.0,395.0,150.0,0,0.751,688.0,88.2,1
174968,1400286043,569.0,437.0,188.0,0,0.793,688.0,88.2,1
174969,1400294044,599.0,476.0,226.0,0,0.828,688.0,88.2,1
174970,1400302043,626.0,513.0,262.0,0,0.85,688.0,88.2,1
174971,1400310043,639.0,543.0,297.0,0,0.868,688.0,88.2,1
174972,1400318045,657.0,571.0,328.0,0,0.869,688.0,88.2,1
174973,1400326043,660.0,592.0,356.0,0,0.867,688.0,88.2,1
174974,1400334043,665.0,610.0,380.0,0,0.853,688.0,88.2,1
174975,1400342043,656.0,621.0,400.0,0,0.834,688.0,88.2,1
174976,1400350045,651.0,628.0,415.0,0,0.802,688.0,88.2,1
174977,1400358043,628.0,628.0,425.0,0,0.765,688.0,88.2,1
174978,1400366045,614.0,625.0,430.0,0,0.726,688.0,88.2,1
174979,1400374043,594.0,617.0,431.0,0,0.696,688.0,88.2,1
174980,1400382045,565.0,605.0,427.0,1,0.715,688.0,88.2,1
174981,1400390046,544.0,590.0,419.0,0,0.741,688.0,88.2,1
174982,1400398043,515.0,572.0,408.0,0,0.758,700.8,86.2,1
174983,1400406043,484.0,551.0,393.0,0,0.78,700.8,86.2,1
174984,1400414043,445.0,525.0,374.0,0,0.798,700.8,86.2,1
174985,1400422043,410.0,497.0,353.0,0,0.798,700.8,86.2,1
174986,1400430045,373.0,467.0,328.0,0,0.804,700.8,86.2,1
174987,1400438043,339.0,436.0,301.0,0,0.793,700.8,86.2,1
174988,1400446043,303.0,404.0,272.0,0,0.778,700.8,86.2,1
174989,1400454044,271.0,372.0,242.0,0,0.753,700.8,86.2,1
174990,1400462045,240.0,340.0,211.0,0,0.725,700.8,86.2,1
174991,1400470043,212.0,309.0,180.0,0,0.691,700.8,86.2,1
174992,1400478045,191.0,280.0,150.0,0,0.652,700.8,86.2,1
174993,1400486043,164.0,252.0,120.0,0,0.616,700.8,86.2,1
174994,1400494043,144.0,226.0,91.0,0,0.578,700.8,86.2,1
174995,1400502045,124.0,201.0,63.0,0,0.542,700.8,86.2,1
174996,1400510045,108.0,179.0,37.0,0,0.504,700.8,86.2,1
174997,1400518043,96.0,159.0,13.0,0,0.481,700.8,86.2,1
174998,1400526043,92.0,142.0,-9.0,0,0.491,700.8,86.2,1
174999,1400534046,80.0,127.0,-29.0,0,0.5,700.8,86.2,1
175000,1400542043,70.0,113.0,-47.0,0,0.506,700.8,86.2,1
175001,1400550046,67.0,102.0,-63.0,0,0.51,700.8,86.2,1
175002,1400558047,57.0,91.0,-77.0,0,0.512,708.8,86.2,1
175003,1400566043,60.0,84.0,-89.0,0,0.512,708.8,86.2,1
175004,1400574043,51.0,76.0,-100.0,0,0.517,708.8,86.2,1
175005,1400582046,44.0,68.0,-109.0,0,0.513,708.8,86.2,1
175006,1400590046,44.0,62.0,-117.0,0,0.514,708.8,86.2,1
175007,1400598044,36.0,56.0,-125.0,0,0.523,708.8,86.2,1
175008,1400606043,31.0,50.0,-132.0,0,0.523,708.8,86.2,1
175009,1400614043,21.0,43.0,-138.0,0,0.522,708.8,86.2,1
175010,1400622043,12.0,35.0,-145.0,0,0.536,708.8,86.2,1
175011,1400630043,4.0,28.0,-151.0,0,0.535,708.8,86.2,1
175012,1400638043,0.0,21.0,-157.0,0,0.541,708.8,86.2,3
175013,1400646043,0.0,16.0,-163.0,0,0.546,708.8,86.2,3
175014,1400654044,0.0,12.0,-168.0,0,0.543,708.8,86.2,3
175015,1400662043,0.0,9.0,-172.0,0,0.539,708.8,86.2,3
175016,1400670043,0.0,7.0,-175.0,0,0.534,708.8,86.2,3
175017,1400678046,0.0,5.0,-177.0,0,0.528,708.8,86.2,3
175018,1400686043,0.0,4.0,-179.0,0,0.529,708.8,86.2,3
175019,1400694044,0.0,3.0,-180.0,0,0.522,708.8,86.2,3
175020,1400702043,0.0,2.0,-180.0,1,0.514,708.8,86.2,3
175021,1400710043,0.0,2.0,-181.0,0,0.521,708.8,86.2,3
175022,1400718043,0.0,1.0,-181.0,1,0.513,708.8,86.2,3
175023,1400726043,0.0,1.0,-180.0,0,0.518,708.8,86.2,3
175024,1400734043,0.0,1.0,-180.0,1,0.51,708.8,86.2,3
175025,1400742043,0.0,1.0,-179.0,0,0.514,708.8,86.2,3
175026,1400750043,0.0,0.0,-179.0,1,0.506,708.8,86.2,3
175027,1400758043,0.0,0.0,-178.0,0,0.511,708.8,86.2,3
175028,1400766043,0.0,0.0,-177.0,0,0.509,708.8,86.2,3
175029,1400774043,0.0,0.0,-176.0,0,0.506,708.8,86.2,3
175030,1400782044,0.0,0.0,-175.0,0,0.504,708.8,86.2,3
175031,1400790043,0.0,0.0,-174.0,0,0.502,708.8,86.2,3
175032,1400798044,0.0,0.0,-173.0,0,0.5,708.8,86.2,3
175033,1400806043,0.0,0.0,-172.0,0,0.498,708.8,86.2,3
175034,1400814044,0.0,0.0,-171.0,0,0.495,708.8,86.2,3
175035,1400822043,0.0,0.0,-169.0,0,0.499,708.8,86.2,3
175036,1400830045,0.0,0.0,-168.0,0,0.49,708.8,86.2,3
175037,1400838043,0.0,0.0,-167.0,0,0.488,708.8,86.2,3
175038,1400846044,0.0,0.0,-166.0,0,0.486,708.8,86.2,3
175039,1400854043,0.0,0.0,-165.0,0,0.485,708.8,86.2,3
175040,1400862044,0.0,0.0,-164.0,0,0.483,708.8,86.2,3
175041,1400870044,5.0,1.0,-163.0,0,0.481,715.2,86.2,1
175042,1400878043,4.0,2.0,-161.0,0,0.485,715.2,86.2,1
175043,1400886043,16.0,5.0,-159.0,0,0.483,715.2,86.2,1
175044,1400894044,14.0,7.0,-156.0,0,0.486,715.2,86.2,1
175045,1400902043,22.0,11.0,-153.0,0,0.483,715.2,86.2,1
175046,1400910043,30.0,16.0,-149.0,0,0.485,715.2,86.2,1
175047,1400918045,36.0,21.0,-145.0,0,0.481,715.2,86.2,1
175048,1400926043,39.0,25.0,-140.0,0,0.482,715.2,86.2,1
175049,1400934046,44.0,30.0,-135.0,0,0.477,715.2,86.2,1
175050,1400942046,48.0,34.0,-130.0,0,0.471,715.2,86.2,1
175051,1400950047,52.0,38.0,-125.0,0,0.465,715.2,86.2,1
175052,1400958043,53.0,42.0,-121.0,0,0.453,715.2,86.2,1
175053,1400966044,60.0,46.0,-116.0,0,0.455,715.2,86.2,1
175054,1400974043,64.0,51.0,-111.0,0,0.449,715.2,86.2,1
175055,1400982046,72.0,56.0,-106.0,0,0.444,715.2,86.2,1
175056,1400990046,71.0,59.0,-101.0,0,0.438,715.2,86.2,1
175057,1400998043,76.0,63.0,-96.0,0,0.433,715.2,86.2,1
175058,1401006043,80.0,67.0,-91.0,0,0.427,715.2,86.2,1
175059,1401014043,83.0,71.0,-87.0,0,0.415,715.2,86.2,1
175060,1401022043,84.0,74.0,-82.0,0,0.418,715.2,86.2,1
175061,1401030043,86.0,77.0,-78.0,0,0.406,715.2,86.2,1
175062,1401038046,88.0,80.0,-75.0,0,0.395,715.2,86.2,1
175063,1401046047,94.0,83.0,-71.0,0,0.399,715.2,86.2,1
175064,1401054047,99.0,87.0,-67.0,0,0.395,715.2,86.2,1
175065,1401062045,111.0,93.0,-62.0,0,0.397,715.2,86.2,1
175066,1401070043,132.0,102.0,-56.0,0,0.399,715.2,86.2,1
175067,1401078046,149.0,114.0,-49.0,0,0.399,715.2,86.2,1
175068,1401086044,187.0,131.0,-38.0,0,0.42,715.2,86.2,1
175069,1401094046,224.0,154.0,-24.0,0,0.429,715.2,86.2,1
175070,1401102043,264.0,181.0,-7.0,0,0.445,715.2,86.2,1
175071,1401110047,311.0,212.0,15.0,0,0.5,715.2,86.2,1
175072,1401118044,358.0,248.0,40.0,0,0.542,715.2,86.2,1
175073,1401126044,410.0,287.0,69.0,0,0.593,715.2,86.2,1
175074,1401134043,458.0,328.0,101.0,0,0.64,715.2,86.2,1
175075,1401142043,504.0,371.0,136.0,0,0.689,715.2,86.2,1
175076,1401150043,553.0,415.0,173.0,0,0.734,715.2,86.2,1
175077,1401158043,582.0,456.0,210.0,0,0.769,715.2,86.2,1
175078,1401166043,612.0,493.0,247.0,0,0.801,715.2,86.2,1
175079,1401174047,636.0,528.0,282.0,0,0.82,715.2,86.2,1
175080,1401182043,656.0,559.0,316.0,0,0.838,716.8,86.2,1
175081,1401190044,667.0,585.0,346.0,0,0.838,716.8,86.2,17
175082,1401198043,664.0,604.0,373.0,0,0.835,716.8,86.2,17
175083,1401206043,668.0,620.0,395.0,0,0.815,716.8,86.2,17
175084,1401214043,663.0,630.0,413.0,0,0.796,716.8,86.2,17
175085,1401222043,649.0,635.0,427.0,0,0.772,716.8,86.2,17
175086,1401230043,630.0,634.0,435.0,0,0.73,716.8,86.2,17
175087,1401238043,607.0,627.0,438.0,0,0.694,716.8,86.2,17
175088,1401246043,588.0,618.0,437.0,1,0.678,716.8,86.2,17
175089,1401254043,563.0,604.0,432.0,0,0.702,716.8,86.2,17
175090,1401262047,535.0,588.0,422.0,0,0.732,716.8,86.2,17
175091,1401270043,505.0,568.0,409.0,0,0.746,716.8,86.2,17
175092,1401278047,473.0,545.0,393.0,0,0.757,716.8,86.2,17
175093,1401286043,442.0,520.0,373.0,0,0.771,716.8,86.2,17
175094,1401294046,404.0,492.0,350.0,0,0.774,716.8,86.2,17
175095,1401302043,368.0,462.0,325.0,0,0.767,716.8,86.2,17
175096,1401310045,336.0,431.0,298.0,0,0.756,716.8,86.2,17
175097,1401318043,296.0,398.0,269.0,0,0.741,716.8,86.2,17
175098,1401326046,272.0,368.0,239.0,0,0.718,716.8,86.2,17
175099,1401334044,239.0,337.0,208.0,0,0.692,716.8,86.2,17
175100,1401342047,208.0,305.0,178.0,0,0.658,716.8,86.2,17
175101,1401350043,183.0,276.0,147.0,0,0.631,716.8,86.2,17
175102,1401358045,163.0,248.0,117.0,0,0.597,716.8,86.2,17
175103,1401366043,147.0,224.0,89.0,0,0.56,716.8,86.2,17
175104,1401374044,127.0,200.0,62.0,0,0.53,716.8,86.2,17
175105,1401382043,115.0,180.0,37.0,0,0.497,716.8,86.2,17
175106,1401390043,102.0,161.0,14.0,0,0.472,716.8,86.2,17
175107,1401398043,93.0,144.0,-8.0,0,0.485,716.8,86.2,17
175108,1401406044,86.0,130.0,-27.0,0,0.483,716.8,86.2,17
175109,1401414043,80.0,118.0,-44.0,0,0.485,716.8,86.2,17
175110,1401422043,72.0,107.0,-59.0,0,0.485,716.8,86.2,17
175111,1401430043,69.0,98.0,-72.0,0,0.483,716.8,86.2,17
175112,1401438043,62.0,89.0,-84.0,0,0.488,716.8,86.2,17
175113,1401446043,56.0,81.0,-94.0,0,0.483,716.8,86.2,17
175114,1401454043,51.0,74.0,-103.0,0,0.484,716.8,86.2,17
175115,1401462045,44.0,67.0,-112.0,0,0.493,716.8,86.2,17
175116,1401470043,40.0,60.0,-119.0,0,0.485,716.8,86.2,17
175117,1401478045,32.0,53.0,-126.0,0,0.492,716.8,86.2,17
175118,1401486043,31.0,48.0,-133.0,0,0.498,716.8,86.2,17
175119,1401494045,21.0,41.0,-139.0,0,0.497,716.8,86.2,17
175120,1401502043,15.0,35.0,-145.0,0,0.502,716.8,86.2,17
175121,1401510045,9.0,29.0,-150.0,0,0.5,716.8,86.2,17
175122,1401518044,0.0,22.0,-156.0,0,0.512,716.8,86.2,19
175123,1401526046,0.0,16.0,-161.0,0,0.51,716.8,86.2,19
175124,1401534043,0.0,12.0,-166.0,0,0.514,716.8,86.2,19
175125,1401542046,0.0,9.0,-170.0,0,0.51,716.8,86.2,19
175126,1401550043,0.0,7.0,-173.0,0,0.506,716.8,86.2,19
175127,1401558043,0.0,5.0,-175.0,0,0.5,716.8,86.2,19
175128,1401566046,0.0,4.0,-177.0,0,0.501,716.8,86.2,19
175129,1401574047,0.0,3.0,-178.0,0,0.495,716.8,86.2,19
175130,1401582043,0.0,2.0,-178.0,1,0.487,716.8,86.2,19
175131,1401590043,0.0,2.0,-179.0,0,0.495,716.8,86.2,19
175132,1401598046,0.0,1.0,-179.0,1,0.487,716.8,86.2,19
175133,1401606045,0.0,1.0,-179.0,0,0.487,716.8,86.2,19
175134,1401614046,0.0,1.0,-178.0,0,0.492,716.8,86.2,19
175135,1401622043,0.0,1.0,-178.0,1,0.485,716.8,86.2,19
175136,1401630043,0.0,0.0,-177.0,0,0.49,716.8,86.2,19
175137,1401638043,0.0,0.0,-176.0,0,0.489,716.8,86.2,19
175138,1401646043,0.0,0.0,-175.0,0,0.487,716.8,86.2,19
175139,1401654044,0.0,0.0,-174.0,0,0.486,716.8,86.2,19
175140,1401662046,0.0,0.0,-173.0,0,0.485,716.8,86.2,19
175141,1401670043,0.0,0.0,-172.0,0,0.483,716.8,86.2,19
175142,1401678046,0.0,0.0,-171.0,0,0.482,716.8,86.2,19
175143,1401686044,0.0,0.0,-170.0,0,0.481,716.8,86.2,19
175144,1401694046,0.0,0.0,-169.0,0,0.48,716.8,86.2,19
175145,1401702043,0.0,0.0,-168.0,0,0.479,716.8,86.2,19
175146,1401710047,0.0,0.0,-167.0,0,0.478,716.8,86.2,19
175147,1401718043,0.0,0.0,-166.0,0,0.476,716.8,86.2,19
175148,1401726046,8.0,2.0,-164.0,0,0.481,716.8,86.2,17
175149,1401734044,10.0,4.0,-162.0,0,0.479,716.8,86.2,17
175150,1401742044,16.0,7.0,-160.0,0,0.477,716.8,86.2,17
175151,1401750045,23.0,11.0,-156.0,0,0.487,716.8,86.2,17
175152,1401758043,28.0,15.0,-153.0,0,0.477,716.8,86.2,17
175153,1401766043,35.0,20.0,-148.0,0,0.486,716.8,86.2,17
175154,1401774043,37.0,24.0,-144.0,0,0.475,716.8,86.2,17
175155,1401782044,42.0,28.0,-139.0,0,0.477,716.8,86.2,17
175156,1401790044,48.0,33.0,-134.0,0,0.472,716.8,86.2,17
175157,1401798043,56.0,39.0,-129.0,0,0.467,716.8,86.2,17
175158,1401806043,59.0,44.0,-123.0,0,0.468,716.8,86.2,17
175159,1401814043,60.0,48.0,-118.0,0,0.456,716.8,86.2,17
175160,1401822046,68.0,53.0,-113.0,0,0.45,716.8,86.2,17
175161,1401830044,75.0,58.0,-107.0,0,0.452,716.8,86.2,17
175162,1401838044,80.0,63.0,-101.0,0,0.446,716.8,86.2,17
175163,1401846043,84.0,68.0,-96.0,0,0.433,716.8,86.2,17
175164,1401854043,84.0,72.0,-90.0,0,0.435,716.8,86.2,17
175165,1401862044,89.0,76.0,-85.0,0,0.422,716.8,86.2,17
175166,1401870043,94.0,81.0,-80.0,0,0.417,716.8,86.2,17
175167,1401878043,94.0,84.0,-76.0,0,0.406,716.8,86.2,17
175168,1401886043,100.0,88.0,-71.0,0,0.409,716.8,86.2,17
175169,1401894043,100.0,91.0,-67.0,0,0.398,716.8,86.2,17
175170,1401902043,103.0,94.0,-63.0,0,0.394,716.8,86.2,17
175171,1401910043,110.0,98.0,-59.0,0,0.39,716.8,86.2,17
175172,1401918043,111.0,101.0,-55.0,0,0.386,716.8,86.2,17
175173,1401926043,118.0,105.0,-51.0,0,0.383,716.8,86.2,17
175174,1401934043,134.0,112.0,-46.0,0,0.385,716.8,86.2,17
175175,1401942045,154.0,122.0,-40.0,0,0.387,716.8,86.2,17
175176,1401950046,176.0,135.0,-31.0,0,0.401,716.8,86.2,17
175177,1401958044,208.0,153.0,-20.0,0,0.406,716.8,86.2,17
175178,1401966043,246.0,175.0,-6.0,0,0.415,716.8,86.2,17
175179,1401974045,287.0,203.0,12.0,0,0.458,716.8,86.2,17
175180,1401982043,333.0,234.0,33.0,0,0.497,716.8,86.2,17
175181,1401990043,381.0,270.0,59.0,0,0.552,716.8,86.2,17
175182,1401998047,425.0,307.0,87.0,0,0.591,716.8,86.2,17
175183,1402006045,467.0,346.0,118.0,0,0.637,716.8,86.2,17
175184,1402014043,504.0,384.0,151.0,0,0.68,716.8,86.2,17
175185,1402022043,543.0,423.0,185.0,0,0.718,716.8,86.2,17
175186,1402030043,572.0,459.0,219.0,0,0.75,716.8,86.2,17
175187,1402038043,588.0,490.0,251.0,0,0.77,716.8,86.2,17
175188,1402046043,608.0,519.0,282.0,0,0.791,716.8,86.2,17
175189,1402054043,616.0,542.0,310.0,0,0.797,716.8,86.2,17
175190,1402062043,621.0,561.0,335.0,0,0.797,716.8,86.2,17
175191,1402070043,621.0,576.0,356.0,0,0.786,716.8,86.2,17
175192,1402078043,613.0,585.0,372.0,0,0.761,716.8,86.2,17
175193,1402086043,604.0,590.0,385.0,0,0.745,716.8,86.2,17
175194,1402094043,585.0,588.0,393.0,0,0.711,716.8,86.2,17
175195,1402102043,569.0,584.0,396.0,0,0.675,716.8,86.2,17
175196,1402110043,543.0,574.0,395.0,1,0.661,716.8,86.2,17
175197,1402118043,519.0,561.0,390.0,0,0.687,716.8,86.2,17
175198,1402126043,495.0,545.0,381.0,0,0.712,716.8,86.2,17
175199,1402134043,464.0,525.0,368.0,0,0.736,716.8,86.2,17
175200,1402142047,436.0,504.0,352.0,0,0.749,716.8,86.2,17
175201,1402150043,409.0,481.0,334.0,0,0.752,716.8,86.2,17
175202,1402158046,372.0,454.0,313.0,0,0.757,716.8,86.2,17
175203,1402166043,344.0,428.0,290.0,0,0.753,716.8,86.2,17
175204,1402174046,308.0,399.0,264.0,0,0.749,716.8,86.2,17
175205,1402182043,282.0,370.0,238.0,0,0.727,716.8,86.2,17
175206,1402190047,250.0,341.0,211.0,0,0.708,716.8,86.2,17
175207,1402198043,221.0,312.0,182.0,0,0.689,716.8,86.2,17
175208,1402206046,199.0,285.0,154.0,0,0.656,716.8,86.2,17
175209,1402214043,180.0,259.0,127.0,0,0.623,716.8,86.2,17
175210,1402222047,157.0,234.0,100.0,0,0.595,716.8,86.2,17
175211,1402230043,144.0,213.0,75.0,0,0.558,716.8,86.2,17
175212,1402238044,132.0,193.0,51.0,0,0.529,716.8,86.2,17
175213,1402246043,119.0,175.0,29.0,0,0.496,716.8,86.2,17
175214,1402254043,110.0,159.0,9.0,0,0.465,716.8,86.2,17
175215,1402262043,106.0,146.0,-9.0,0,0.45,716.8,86.2,17
175216,1402270043,101.0,135.0,-25.0,0,0.451,716.8,86.2,17
175217,1402278043,95.0,126.0,-39.0,0,0.45,716.8,86.2,17
175218,1402286043,96.0,118.0,-51.0,0,0.447,716.8,86.2,17
175219,1402294044,92.0,112.0,-61.0,0,0.442,716.8,86.2,17
175220,1402302043,92.0,107.0,-69.0,0,0.435,716.8,86.2,17
175221,1402310044,87.0,102.0,-77.0,0,0.444,716.8,86.2,17
175222,1402318046,85.0,98.0,-83.0,0,0.435,716.8,86.2,17
175223,1402326044,81.0,94.0,-88.0,0,0.433,716.8,86.2,17
175224,1402334045,74.0,89.0,-93.0,0,0.438,716.8,86.2,17
175225,1402342043,69.0,84.0,-98.0,0,0.443,716.8,86.2,17
175226,1402350043,62.0,79.0,-103.0,0,0.449,716.8,86.2,17
175227,1402358045,62.0,75.0,-107.0,0,0.446,716.8,86.2,17
175228,1402366043,51.0,69.0,-112.0,0,0.458,716.8,86.2,17
175229,1402374043,44.0,63.0,-116.0,0,0.455,716.8,86.2,17
175230,1402382043,37.0,57.0,-121.0,0,0.468,716.8,86.2,17
175231,1402390044,36.0,52.0,-126.0,0,0.474,716.8,86.2,17
175232,1402398043,28.0,46.0,-131.0,0,0.479,716.8,86.2,17
175233,1402406047,24.0,41.0,-135.0,0,0.476,716.8,86.2,17
175234,1402414043,18.0,35.0,-140.0,0,0.489,716.8,86.2,17
175235,1402422044,15.0,30.0,-144.0,0,0.486,716.8,86.2,17
175236,1402430043,12.0,26.0,-148.0,0,0.49,716.8,86.2,17
175237,1402438043,4.0,21.0,-152.0,0,0.494,716.8,86.2,17
175238,1402446047,6.0,17.0,-156.0,0,0.499,716.8,86.2,17
175239,1402454046,1.0,13.0,-159.0,0,0.495,716.8,86.2,17
175240,1402462043,0.0,10.0,-162.0,0,0.498,716.8,86.2,19
175241,1402470047,0.0,8.0,-165.0,0,0.501,716.8,86.2,19
175242,1402478046,0.0,6.0,-167.0,0,0.496,716.8,86.2,19
175243,1402486043,0.0,4.0,-168.0,0,0.49,716.8,86.2,19
175244,1402494043,0.0,3.0,-169.0,0,0.491,716.8,86.2,19
175245,1402502044,0.0,2.0,-170.0,0,0.492,716.8,86.2,19
175246,1402510045,0.0,2.0,-170.0,1,0.485,716.8,86.2,19
175247,1402518043,2.0,2.0,-170.0,0,0.486,716.8,86.2,17
175248,1402526046,4.0,2.0,-170.0,0,0.486,716.8,86.2,17
175249,1402534043,8.0,4.0,-169.0,0,0.491,716.8,86.2,17
175250,1402542047,12.0,6.0,-167.0,0,0.496,716.8,86.2,17
175251,1402550046,17.0,8.0,-165.0,0,0.494,716.8,86.2,17
175252,1402558046,20.0,11.0,-162.0,0,0.498,716.8,86.2,17
175253,1402566043,24.0,14.0,-159.0,0,0.495,716.8,86.2,17
175254,1402574044,29.0,18.0,-155.0,0,0.498,716.8,86.2,17
175255,1402582043,34.0,22.0,-151.0,0,0.494,716.8,86.2,17
175256,1402590045,37.0,25.0,-147.0,0,0.49,716.8,86.2,17
175257,1402598044,41.0,29.0,-143.0,0,0.486,716.8,86.2,17
175258,1402606043,46.0,33.0,-139.0,0,0.482,716.8,86.2,17
175259,1402614043,48.0,37.0,-134.0,0,0.484,716.8,86.2,17
175260,1402622043,55.0,41.0,-130.0,0,0.472,716.8,86.2,17
175261,1402630043,61.0,46.0,-125.0,0,0.474,716.8,86.2,17
175262,1402638043,61.0,50.0,-120.0,0,0.469,716.8,86.2,17
175263,1402646044,67.0,54.0,-115.0,0,0.464,716.8,86.2,17
175264,1402654047,75.0,59.0,-110.0,0,0.459,716.8,86.2,17
175265,1402662045,76.0,63.0,-105.0,0,0.454,716.8,86.2,17
175266,1402670043,79.0,67.0,-100.0,0,0.448,716.8,86.2,17
175267,1402678044,84.0,71.0,-96.0,0,0.437,716.8,86.2,17
175268,1402686046,84.0,74.0,-91.0,0,0.439,716.8,86.2,17
175269,1402694045,83.0,76.0,-87.0,0,0.427,716.8,86.2,17
175270,1402702046,92.0,80.0,-83.0,0,0.423,716.8,86.2,17
175271,1402710046,92.0,83.0,-79.0,0,0.419,716.8,86.2,17
175272,1402718043,91.0,85.0,-76.0,0,0.409,716.8,86.2,17
175273,1402726046,96.0,88.0,-73.0,0,0.406,716.8,86.2,17
175274,1402734043,96.0,90.0,-69.0,0,0.409,716.8,86.2,17
175275,1402742043,98.0,92.0,-67.0,0,0.393,716.8,86.2,17
175276,1402750043,107.0,95.0,-63.0,0,0.403,716.8,86.2,17
175277,1402758045,112.0,99.0,-60.0,0,0.393,716.8,86.2,17
175278,1402766043,130.0,107.0,-55.0,0,0.402,716.8,86.2,17
175279,1402774043,148.0,117.0,-49.0,0,0.404,716.8,86.2,17
175280,1402782045,173.0,130.0,-40.0,0,0.417,716.8,86.2,17
175281,1402790044,205.0,149.0,-29.0,0,0.422,716.8,86.2,17
175282,1402798044,237.0,170.0,-15.0,0,0.431,716.8,86.2,17
175283,1402806043,287.0,198.0,3.0,0,0.446,716.8,86.2,17
175284,1402814045,328.0,230.0,25.0,0,0.493,716.8,86.2,17
175285,1402822044,372.0,264.0,50.0,0,0.536,716.8,86.2,17
175286,1402830044,420.0,302.0,78.0,0,0.581,716.8,86.2,17
175287,1402838043,456.0,339.0,109.0,0,0.627,716.8,86.2,17
175288,1402846043,495.0,377.0,141.0,0,0.666,716.8,86.2,17
175289,1402854045,521.0,412.0,174.0,0,0.706,716.8,86.2,17
175290,1402862043,553.0,446.0,206.0,0,0.735,716.8,86.2,17
175291,1402870043,570.0,476.0,237.0,0,0.761,716.8,86.2,17
175292,1402878043,582.0,502.0,266.0,0,0.778,716.8,86.2,17
175293,1402886043,591.0,523.0,293.0,0,0.79,716.8,86.2,17
175294,1402894043,596.0,541.0,316.0,0,0.785,716.8,86.2,17
175295,1402902043,591.0,553.0,335.0,0,0.772,716.8,86.2,17
175296,1402910043,588.0,562.0,350.0,0,0.753,716.8,86.2,17
175297,1402918043,574.0,565.0,361.0,0,0.729,716.8,86.2,17
175298,1402926043,561.0,564.0,368.0,0,0.702,716.8,86.2,17
175299,1402934043,543.0,559.0,371.0,0,0.673,716.8,86.2,17
175300,1402942043,517.0,549.0,369.0,1,0.665,716.8,86.2,17
175301,1402950043,497.0,536.0,364.0,0,0.685,716.8,86.2,17
175302,1402958047,469.0,520.0,355.0,0,0.712,716.8,86.2,17
175303,1402966043,442.0,501.0,342.0,0,0.737,716.8,86.2,17
175304,1402974047,412.0,479.0,327.0,0,0.743,716.8,86.2,17
175305,1402982043,379.0,455.0,308.0,0,0.76,716.8,86.2,17
175306,1402990047,346.0,429.0,287.0,0,0.759,716.8,86.2,17
175307,1402998043,313.0,401.0,263.0,0,0.758,716.8,86.2,17
175308,1403006047,280.0,371.0,238.0,0,0.743,716.8,86.2,17
175309,1403014043,251.0,342.0,211.0,0,0.728,716.8,86.2,17
175310,1403022045,224.0,314.0,183.0,0,0.706,716.8,86.2,17
175311,1403030043,199.0,286.0,155.0,0,0.676,716.8,86.2,17
175312,1403038046,180.0,260.0,128.0,0,0.642,716.8,86.2,17
175313,1403046043,163.0,237.0,102.0,0,0.608,716.8,86.2,17
175314,1403054047,145.0,214.0,77.0,0,0.575,716.8,86.2,17
175315,1403062043,131.0,194.0,53.0,0,0.544,716.8,86.2,17
175316,1403070045,124.0,177.0,31.0,0,0.509,716.8,86.2,17
175317,1403078043,113.0,162.0,11.0,0,0.477,716.8,86.2,17
175318,1403086043,110.0,149.0,-6.0,0,0.445,716.8,86.2,17
175319,1403094043,103.0,138.0,-22.0,0,0.454,716.8,86.2,17
175320,1403102046,104.0,130.0,-36.0,0,0.453,716.8,86.2,17
175321,1403110043,101.0,123.0,-47.0,0,0.441,716.8,86.2,17
175322,1403118043,100.0,117.0,-57.0,0,0.444,716.8,86.2,17
175323,1403126043,99.0,113.0,-65.0,0,0.436,716.8,86.2,17
175324,1403134043,95.0,108.0,-71.0,0,0.427,716.8,86.2,17
175325,1403142043,93.0,105.0,-77.0,0,0.434,716.8,86.2,17
175326,1403150043,89.0,101.0,-82.0,0,0.431,716.8,86.2,17
175327,1403158046,81.0,96.0,-87.0,0,0.437,716.8,86.2,17
175328,1403166043,78.0,92.0,-91.0,0,0.434,716.8,86.2,17
175329,1403174047,76.0,88.0,-95.0,0,0.438,716.8,86.2,17
175330,1403182043,72.0,84.0,-99.0,0,0.443,716.8,86.2,17
175331,1403190046,66.0,80.0,-103.0,0,0.448,716.8,86.2,17
175332,1403198043,60.0,75.0,-107.0,0,0.452,716.8,86.2,17
175333,1403206043,50.0,69.0,-111.0,0,0.457,716.8,86.2,17
175334,1403214043,48.0,64.0,-115.0,0,0.462,716.8,86.2,17
175335,1403222043,36.0,57.0,-120.0,0,0.476,716.8,86.2,17
175336,1403230043,34.0,51.0,-125.0,0,0.481,716.8,86.2,17
175337,1403238045,23.0,45.0,-130.0,0,0.487,716.8,86.2,17
175338,1403246043,18.0,38.0,-135.0,0,0.493,716.8,86.2,17
175339,1403254045,11.0,32.0,-140.0,0,0.499,716.8,86.2,17
175340,1403262043,12.0,27.0,-145.0,0,0.505,716.8,86.2,17
175341,1403270045,7.0,22.0,-149.0,0,0.502,716.8,86.2,17
175342,1403278043,4.0,18.0,-154.0,0,0.515,716.8,86.2,17
175343,1403286045,4.0,14.0,-157.0,0,0.503,716.8,86.2,17
175344,1403294045,0.0,11.0,-160.0,0,0.506,716.8,86.2,19
175345,1403302044,0.0,8.0,-163.0,0,0.51,716.8,86.2,19
175346,1403310046,0.0,6.0,-165.0,0,0.505,716.8,86.2,19
175347,1403318043,0.0,5.0,-167.0,0,0.507,716.8,86.2,19
175348,1403326047,0.0,4.0,-168.0,0,0.501,716.8,86.2,19
175349,1403334043,0.0,3.0,-169.0,0,0.502,716.8,86.2,19
175350,1403342043,2.0,3.0,-169.0,1,0.495,716.8,86.2,17
175351,1403350043,4.0,3.0,-169.0,0,0.495,716.8,86.2,17
175352,1403358043,4.0,3.0,-169.0,0,0.495,716.8,86.2,17
175353,1403366043,9.0,5.0,-167.0,0,0.507,716.8,86.2,17
175354,1403374043,9.0,6.0,-166.0,0,0.499,716.8,86.2,17
175355,1403382043,16.0,8.0,-164.0,0,0.504,716.8,86.2,17
175356,1403390046,15.0,10.0,-162.0,0,0.502,716.8,86.2,17
175357,1403398043,20.0,12.0,-159.0,0,0.506,716.8,86.2,17
175358,1403406044,28.0,16.0,-156.0,0,0.503,716.8,86.2,17
175359,1403414043,30.0,19.0,-152.0,0,0.506,716.8,86.2,17
175360,1403422043,34.0,23.0,-149.0,0,0.495,716.8,86.2,17
175361,1403430043,40.0,27.0,-145.0,0,0.499,716.8,86.2,17
175362,1403438043,42.0,31.0,-140.0,0,0.501,716.8,86.2,17
175363,1403446043,48.0,35.0,-136.0,0,0.489,716.8,86.2,17
175364,1403454043,52.0,39.0,-131.0,0,0.491,716.8,86.2,17
175365,1403462045,57.0,43.0,-126.0,0,0.486,716.8,86.2,17
175366,1403470043,60.0,47.0,-122.0,0,0.473,716.8,86.2,17
175367,1403478043,64.0,51.0,-117.0,0,0.476,716.8,86.2,17
175368,1403486044,68.0,55.0,-112.0,0,0.47,716.8,86.2,17
175369,1403494043,67.0,58.0,-108.0,0,0.458,716.8,86.2,17
175370,1403502043,74.0,62.0,-104.0,0,0.454,716.8,86.2,17
175371,1403510044,76.0,65.0,-99.0,0,0.456,716.8,86.2,17
175372,1403518044,74.0,68.0,-95.0,0,0.444,716.8,86.2,17
175373,1403526044,80.0,71.0,-92.0,0,0.433,716.8,86.2,17
175374,1403534043,82.0,73.0,-88.0,0,0.436,716.8,86.2,17
175375,1403542043,86.0,76.0,-85.0,0,0.425,716.8,86.2,17
175376,1403550043,93.0,80.0,-81.0,0,0.428,716.8,86.2,17
175377,1403558044,96.0,84.0,-77.0,0,0.424,716.8,86.2,17
175378,1403566044,112.0,91.0,-72.0,0,0.426,716.8,86.2,17
175379,1403574043,127.0,100.0,-66.0,0,0.428,716.8,86.2,17
175380,1403582043,156.0,113.0,-57.0,0,0.442,716.8,86.2,17
175381,1403590043,184.0,130.0,-47.0,0,0.439,716.8,86.2,17
175382,1403598043,223.0,153.0,-32.0,0,0.462,716.8,86.2,17
175383,1403606043,268.0,181.0,-14.0,0,0.466,716.8,86.2,17
175384,1403614047,313.0,213.0,8.0,0,0.482,716.8,86.2,17
175385,1403622046,358.0,248.0,33.0,0,0.524,716.8,86.2,17
175386,1403630044,399.0,285.0,62.0,0,0.574,716.8,86.2,17
175387,1403638043,446.0,324.0,93.0,0,0.616,716.8,86.2,17
175388,1403646046,489.0,364.0,126.0,0,0.66,716.8,86.2,17
175389,1403654043,526.0,403.0,161.0,0,0.705,716.8,86.2,17
175390,1403662046,560.0,441.0,196.0,0,0.74,716.8,86.2,17
175391,1403670043,586.0,476.0,230.0,0,0.769,716.8,86.2,17
175392,1403678047,601.0,507.0,263.0,0,0.794,716.8,86.2,17
175393,1403686043,617.0,533.0,293.0,0,0.804,716.8,86.2,17
175394,1403694043,624.0,555.0,320.0,0,0.808,716.8,86.2,17
175395,1403702043,624.0,572.0,343.0,0,0.8,716.8,86.2,17
175396,1403710043,620.0,584.0,363.0,0,0.792,716.8,86.2,17
175397,1403718043,608.0,590.0,377.0,0,0.756,716.8,86.2,17
175398,1403726043,602.0,593.0,388.0,0,0.739,716.8,86.2,17
175399,1403734043,583.0,590.0,394.0,0,0.702,716.8,86.2,17
175400,1403742043,565.0,584.0,396.0,0,0.672,716.8,86.2,17
175401,1403750043,542.0,574.0,393.0,1,0.678,716.8,86.2,17
175402,1403758043,516.0,560.0,387.0,0,0.698,716.8,86.2,17
175403,1403766043,486.0,542.0,377.0,0,0.725,716.8,86.2,17
175404,1403774047,460.0,522.0,363.0,0,0.75,716.8,86.2,17
175405,1403782043,432.0,500.0,346.0,0,0.763,716.8,86.2,17
175406,1403790046,400.0,476.0,327.0,0,0.766,716.8,86.2,17
175407,1403798043,368.0,450.0,305.0,0,0.771,716.8,86.2,17
175408,1403806046,336.0,422.0,281.0,0,0.765,716.8,86.2,17
175409,1403814043,304.0,394.0,256.0,0,0.751,716.8,86.2,17
175410,1403822045,268.0,363.0,228.0,0,0.741,716.8,86.2,17
175411,1403830043,239.0,333.0,200.0,0,0.714,716.8,86.2,17
175412,1403838043,214.0,304.0,171.0,0,0.69,716.8,86.2,17
175413,1403846043,189.0,276.0,143.0,0,0.655,716.8,86.2,17
175414,1403854043,165.0,249.0,115.0,0,0.625,716.8,86.2,17
175415,1403862043,145.0,224.0,87.0,0,0.594,716.8,86.2,17
175416,1403870043,126.0,200.0,61.0,0,0.556,716.8,86.2,17
175417,1403878043,109.0,178.0,36.0,0,0.524,716.8,86.2,17
175418,1403886044,102.0,160.0,13.0,0,0.49,716.8,86.2,17
175419,1403894043,89.0,143.0,-9.0,0,0.486,716.8,86.2,17
175420,1403902043,85.0,129.0,-28.0,0,0.486,716.8,86.2,17
175421,1403910043,76.0,116.0,-45.0,0,0.49,716.8,86.2,17
175422,1403918043,72.0,105.0,-60.0,0,0.492,716.8,86.2,17
175423,1403926043,68.0,96.0,-73.0,0,0.491,716.8,86.2,17
175424,1403934043,63.0,88.0,-84.0,0,0.488,716.8,86.2,17
175425,1403942043,59.0,81.0,-94.0,0,0.492,716.8,86.2,17
175426,1403950046,59.0,76.0,-103.0,0,0.494,716.8,86.2,17
175427,1403958043,55.0,71.0,-110.0,0,0.485,716.8,86.2,17
175428,1403966045,48.0,65.0,-116.0,0,0.484,716.8,86.2,17
175429,1403974043,42.0,60.0,-122.0,0,0.491,716.8,86.2,17
175430,1403982044,36.0,54.0,-128.0,0,0.497,716.8,86.2,17
175431,1403990043,34.0,49.0,-133.0,0,0.495,716.8,86.2,17
175432,1403998043,27.0,44.0,-138.0,0,0.5,716.8,86.2,17
175433,1404006043,18.0,37.0,-143.0,0,0.506,716.8,86.2,17
175434,1404014044,12.0,31.0,-148.0,0,0.511,716.8,86.2,17
175435,1404022045,7.0,25.0,-153.0,0,0.517,716.8,86.2,17
175436,1404030043,0.0,19.0,-158.0,0,0.522,716.8,86.2,19
175437,1404038047,0.0,15.0,-162.0,0,0.519,716.8,86.2,19
175438,1404046044,0.0,11.0,-166.0,0,0.523,716.8,86.2,19
175439,1404054047,0.0,8.0,-170.0,0,0.527,716.8,86.2,19
175440,1404062045,0.0,6.0,-172.0,0,0.513,716.8,86.2,19
175441,1404070044,0.0,5.0,-174.0,0,0.515,716.8,86.2,19
175442,1404078043,0.0,4.0,-175.0,0,0.509,716.8,86.2,19
175443,1404086043,0.0,3.0,-176.0,0,0.51,716.8,86.2,19
175444,1404094045,0.0,2.0,-177.0,0,0.511,716.8,86.2,19
175445,1404102044,0.0,2.0,-177.0,1,0.503,716.8,86.2,19
175446,1404110043,0.0,1.0,-177.0,0,0.503,716.8,86.2,19
175447,1404118043,0.0,1.0,-177.0,0,0.503,716.8,86.2,19
175448,1404126046,0.0,1.0,-176.0,0,0.51,716.8,86.2,19
175449,1404134043,0.0,1.0,-175.0,0,0.509,716.8,86.2,19
175450,1404142043,0.0,0.0,-175.0,1,0.501,716.8,86.2,19
175451,1404150043,0.0,0.0,-174.0,0,0.507,716.8,86.2,19
175452,1404158043,0.0,0.0,-173.0,0,0.506,716.8,86.2,19
175453,1404166043,0.0,0.0,-172.0,0,0.505,716.8,86.2,19
175454,1404174043,0.0,0.0,-171.0,0,0.504,716.8,86.2,19
175455,1404182043,0.0,0.0,-170.0,0,0.503,716.8,86.2,19
175456,1404190043,5.0,1.0,-169.0,0,0.502,716.8,86.2,17
175457,1404198045,10.0,3.0,-167.0,0,0.508,716.8,86.2,17
175458,1404206044,17.0,7.0,-164.0,0,0.512,716.8,86.2,17
175459,1404214045,22.0,10.0,-161.0,0,0.509,716.8,86.2,17
175460,1404222044,29.0,15.0,-157.0,0,0.512,716.8,86.2,17
175461,1404230043,35.0,20.0,-153.0,0,0.508,716.8,86.2,17
175462,1404238043,38.0,24.0,-148.0,0,0.51,716.8,86.2,17
175463,1404246044,44.0,29.0,-143.0,0,0.505,716.8,86.2,17
175464,1404254044,47.0,33.0,-138.0,0,0.499,716.8,86.2,17
175465,1404262043,54.0,38.0,-133.0,0,0.493,716.8,86.2,17
175466,1404270045,57.0,43.0,-127.0,0,0.495,716.8,86.2,17
175467,1404278045,63.0,48.0,-122.0,0,0.481,716.8,86.2,17
175468,1404286043,71.0,53.0,-116.0,0,0.482,716.8,86.2,17
175469,1404294044,68.0,57.0,-111.0,0,0.469,716.8,86.2,17
175470,1404302043,76.0,62.0,-106.0,0,0.463,716.8,86.2,17
175471,1404310043,75.0,65.0,-101.0,0,0.458,716.8,86.2,17
175472,1404318043,82.0,69.0,-96.0,0,0.452,716.8,86.2,17
175473,1404326046,85.0,73.0,-92.0,0,0.44,716.8,86.2,17
175474,1404334044,100.0,79.0,-86.0,0,0.449,716.8,86.2,17
175475,1404342043,114.0,88.0,-80.0,0,0.443,716.8,86.2,17
175476,1404350044,140.0,100.0,-72.0,0,0.45,716.8,86.2,17
175477,1404358045,165.0,116.0,-61.0,0,0.462,716.8,86.2,17
175478,1404366043,205.0,138.0,-48.0,0,0.464,716.8,86.2,17
175479,1404374043,240.0,162.0,-31.0,0,0.477,716.8,86.2,17
175480,1404382046,287.0,193.0,-10.0,0,0.482,716.8,86.2,17
175481,1404390043,331.0,226.0,14.0,0,0.506,716.8,86.2,17
175482,1404398043,375.0,262.0,41.0,0,0.55,716.8,86.2,17
175483,1404406045,422.0,301.0,71.0,0,0.597,716.8,86.2,17
175484,1404414045,460.0,340.0,104.0,0,0.645,716.8,86.2,17
175485,1404422043,502.0,379.0,138.0,0,0.687,716.8,86.2,17
175486,1404430046,534.0,417.0,172.0,0,0.724,716.8,86.2,17
175487,1404438044,558.0,451.0,206.0,0,0.758,716.8,86.2,17
175488,1404446047,582.0,483.0,239.0,0,0.785,716.8,86.2,17
175489,1404454044,595.0,510.0,269.0,0,0.797,716.8,86.2,17
175490,1404462047,606.0,533.0,297.0,0,0.807,716.8,86.2,17
175491,1404470043,606.0,551.0,321.0,0,0.801,716.8,86.2,17
175492,1404478047,605.0,564.0,341.0,0,0.786,716.8,86.2,17
175493,1404486043,597.0,572.0,357.0,0,0.766,716.8,86.2,17
175494,1404494043,581.0,574.0,368.0,0,0.733,716.8,86.2,17
175495,1404502043,565.0,572.0,375.0,0,0.704,716.8,86.2,17
175496,1404510043,544.0,565.0,377.0,0,0.667,716.8,86.2,17
175497,1404518044,528.0,556.0,376.0,1,0.657,716.8,86.2,17
175498,1404526045,503.0,543.0,370.0,0,0.689,716.8,86.2,17
175499,1404534043,470.0,526.0,360.0,0,0.712,716.8,86.2,17
175500,1404542043,444.0,506.0,347.0,0,0.725,716.8,86.2,17
175501,1404550043,418.0,484.0,331.0,0,0.736,716.8,86.2,17
175502,1404558044,388.0,461.0,312.0,0,0.742,716.8,86.2,17
175503,1404566043,352.0,435.0,291.0,0,0.738,716.8,86.2,17
175504,1404574047,320.0,407.0,267.0,0,0.735,716.8,86.2,17
175505,1404582043,293.0,379.0,242.0,0,0.717,716.8,86.2,17
175506,1404590043,262.0,351.0,216.0,0,0.698,716.8,86.2,17
175507,1404598043,229.0,321.0,188.0,0,0.679,716.8,86.2,17
175508,1404606047,204.0,293.0,161.0,0,0.646,716.8,86.2,17
175509,1404614043,178.0,265.0,133.0,0,0.622,716.8,86.2,17
175510,1404622046,158.0,239.0,105.0,0,0.592,716.8,86.2,17
175511,1404630043,137.0,214.0,78.0,0,0.559,716.8,86.2,17
175512,1404638043,120.0,191.0,53.0,0,0.524,716.8,86.2,17
175513,1404646043,106.0,171.0,29.0,0,0.496,716.8,86.2,17
175514,1404654043,93.0,152.0,6.0,0,0.489,716.8,86.2,17
175515,1404662045,86.0,136.0,-14.0,0,0.488,716.8,86.2,17
175516,1404670043,80.0,122.0,-33.0,0,0.5,716.8,86.2,17
175517,1404678043,72.0,110.0,-49.0,0,0.495,716.8,86.2,17
175518,1404686043,70.0,100.0,-64.0,0,0.503,716.8,86.2,17
175519,1404694043,63.0,91.0,-76.0,0,0.493,716.8,86.2,17
175520,1404702043,64.0,85.0,-87.0,0,0.497,716.8,86.2,17
175521,1404710043,56.0,78.0,-96.0,0,0.491,716.8,86.2,17
175522,1404718043,54.0,72.0,-105.0,0,0.501,716.8,86.2,17
175523,1404726045,55.0,68.0,-111.0,0,0.484,716.8,86.2,17
175524,1404734043,51.0,64.0,-117.0,0,0.49,716.8,86.2,17
175525,1404742044,44.0,59.0,-122.0,0,0.488,716.8,86.2,17
175526,1404750043,44.0,55.0,-127.0,0,0.493,716.8,86.2,17
175527,1404758044,30.0,49.0,-131.0,0,0.489,716.8,86.2,17
175528,1404766043,34.0,46.0,-136.0,0,0.501,716.8,86.2,17
175529,1404774043,22.0,40.0,-140.0,0,0.498,716.8,86.2,17
175530,1404782043,19.0,35.0,-144.0,0,0.501,716.8,86.2,17
175531,1404790044,12.0,29.0,-148.0,0,0.505,716.8,86.2,17
175532,1404798043,7.0,24.0,-153.0,0,0.518,716.8,86.2,17
175533,1404806045,4.0,19.0,-157.0,0,0.514,716.8,86.2,17
175534,1404814043,0.0,14.0,-161.0,0,0.518,716.8,86.2,19
175535,1404822046,0.0,11.0,-164.0,0,0.513,716.8,86.2,19
175536,1404830043,0.0,8.0,-167.0,0,0.515,716.8,86.2,19
175537,1404838045,0.0,6.0,-169.0,0,0.509,716.8,86.2,19
175538,1404846046,0.0,5.0,-171.0,0,0.511,716.8,86.2,19
175539,1404854043,0.0,4.0,-172.0,0,0.504,716.8,86.2,19
175540,1404862046,0.0,3.0,-173.0,0,0.504,716.8,86.2,19
175541,1404870043,0.0,2.0,-174.0,0,0.505,716.8,86.2,19
175542,1404878043,0.0,2.0,-174.0,1,0.497,716.8,86.2,19
175543,1404886048,0.0,1.0,-174.0,0,0.497,716.8,86.2,19
175544,1404894047,0.0,1.0,-173.0,0,0.502,716.8,86.2,19
175545,1404902045,0.0,1.0,-173.0,1,0.495,716.8,86.2,19
175546,1404910043,0.0,1.0,-172.0,0,0.5,716.8,86.2,19
175547,1404918044,0.0,0.0,-171.0,0,0.499,716.8,86.2,19
175548,1404926045,0.0,0.0,-171.0,1,0.491,716.8,86.2,19
175549,1404934044,0.0,0.0,-170.0,0,0.497,716.8,86.2,19
175550,1404942043,0.0,0.0,-169.0,0,0.496,716.8,86.2,19
175551,1404950043,0.0,0.0,-168.0,0,0.494,716.8,86.2,19
175552,1404958047,1.0,0.0,-167.0,0,0.493,716.8,86.2,17
175553,1404966043,6.0,2.0,-165.0,0,0.498,716.8,86.2,17
175554,1404974047,4.0,2.0,-164.0,0,0.489,716.8,86.2,17
175555,1404982043,11.0,4.0,-162.0,0,0.494,716.8,86.2,17
175556,1404990044,17.0,7.0,-159.0,0,0.498,716.8,86.2,17
175557,1404998044,22.0,11.0,-156.0,0,0.495,716.8,86.2,17
175558,1405006043,29.0,15.0,-152.0,0,0.498,716.8,86.2,17
175559,1405014043,34.0,20.0,-148.0,0,0.494,716.8,86.2,17
175560,1405022043,42.0,25.0,-143.0,0,0.496,716.8,86.2,17
175561,1405030044,46.0,30.0,-138.0,0,0.49,716.8,86.2,17
175562,1405038043,51.0,35.0,-133.0,0,0.485,716.8,86.2,17
175563,1405046045,55.0,40.0,-127.0,0,0.486,716.8,86.2,17
175564,1405054043,60.0,45.0,-122.0,0,0.472,716.8,86.2,17
175565,1405062043,64.0,50.0,-117.0,0,0.467,716.8,86.2,17
175566,1405070043,68.0,54.0,-111.0,0,0.468,716.8,86.2,17
175567,1405078044,70.0,58.0,-106.0,0,0.455,716.8,86.2,17
175568,1405086045,69.0,61.0,-102.0,0,0.442,716.8,86.2,17
175569,1405094043,72.0,63.0,-97.0,0,0.445,716.8,86.2,17
175570,1405102044,77.0,67.0,-93.0,0,0.432,716.8,86.2,17
175571,1405110044,84.0,71.0,-89.0,0,0.428,716.8,86.2,17
175572,1405118044,82.0,74.0,-85.0,0,0.424,716.8,86.2,17
175573,1405126045,96.0,79.0,-80.0,0,0.427,716.8,86.2,17
175574,1405134043,99.0,84.0,-76.0,0,0.414,716.8,86.2,17
175575,1405142043,114.0,91.0,-70.0,0,0.424,716.8,86.2,17
175576,1405150043,134.0,102.0,-63.0,0,0.424,716.8,86.2,17
175577,1405158043,164.0,117.0,-54.0,0,0.431,716.8,86.2,17
175578,1405166043,196.0,136.0,-41.0,0,0.45,716.8,86.2,17
175579,1405174043,235.0,160.0,-26.0,0,0.449,716.8,86.2,17
175580,1405182046,283.0,190.0,-6.0,0,0.467,716.8,86.2,17
175581,1405190043,328.0,223.0,17.0,0,0.509,716.8,86.2,17
175582,1405198045,374.0,260.0,44.0,0,0.559,716.8,86.2,17
175583,1405206043,424.0,300.0,74.0,0,0.606,716.8,86.2,17
175584,1405214046,467.0,340.0,107.0,0,0.655,716.8,86.2,17
175585,1405222043,508.0,381.0,142.0,0,0.701,716.8,86.2,17
175586,1405230047,545.0,421.0,178.0,0,0.743,716.8,86.2,17
175587,1405238044,572.0,457.0,213.0,0,0.774,716.8,86.2,17
175588,1405246043,596.0,491.0,247.0,0,0.8,716.8,86.2,17
175589,1405254043,612.0,520.0,279.0,0,0.817,716.8,86.2,17
175590,1405262043,621.0,545.0,309.0,0,0.828,716.8,86.2,17
175591,1405270043,626.0,564.0,334.0,0,0.817,716.8,86.2,17
175592,1405278043,621.0,578.0,356.0,0,0.81,716.8,86.2,17
175593,1405286043,618.0,588.0,373.0,0,0.783,716.8,86.2,17
175594,1405294046,600.0,591.0,386.0,0,0.758,716.8,86.2,17
175595,1405302043,587.0,590.0,393.0,0,0.715,716.8,86.2,17
175596,1405310046,562.0,583.0,396.0,0,0.685,716.8,86.2,17
175597,1405318043,544.0,574.0,395.0,1,0.669,716.8,86.2,17
175598,1405326043,516.0,560.0,389.0,0,0.7,716.8,86.2,17
175599,1405334043,487.0,542.0,380.0,0,0.716,716.8,86.2,17
175600,1405342047,456.0,521.0,366.0,0,0.744,716.8,86.2,17
175601,1405350043,427.0,498.0,349.0,0,0.754,716.8,86.2,17
175602,1405358047,394.0,473.0,329.0,0,0.759,716.8,86.2,17
175603,1405366043,364.0,447.0,307.0,0,0.754,716.8,86.2,17
175604,1405374043,329.0,418.0,283.0,0,0.746,716.8,86.2,17
175605,1405382043,299.0,389.0,257.0,0,0.733,716.8,86.2,17
175606,1405390046,265.0,359.0,229.0,0,0.715,716.8,86.2,17
175607,1405398043,232.0,328.0,201.0,0,0.687,716.8,86.2,17
175608,1405406047,205.0,298.0,171.0,0,0.664,716.8,86.2,17
175609,1405414043,177.0,269.0,142.0,0,0.629,716.8,86.2,17
175610,1405422043,154.0,241.0,113.0,0,0.598,717.6,85.1,1
175611,1405430043,137.0,216.0,85.0,0,0.564,717.6,85.1,1
175612,1405438043,120.0,193.0,58.0,0,0.533,717.6,85.1,1
175613,1405446043,109.0,172.0,34.0,0,0.494,717.6,85.1,1
175614,1405454043,100.0,155.0,11.0,0,0.482,717.6,85.1,1
175615,1405462045,91.0,139.0,-10.0,0,0.489,717.6,85.1,1
175616,1405470047,84.0,126.0,-28.0,0,0.486,717.6,85.1,1
175617,1405478045,83.0,116.0,-44.0,0,0.488,717.6,85.1,1
175618,1405486043,81.0,107.0,-57.0,0,0.479,717.6,85.1,1
175619,1405494043,77.0,100.0,-69.0,0,0.483,717.6,85.1,1
175620,1405502045,77.0,94.0,-79.0,0,0.478,717.6,85.1,1
175621,1405510043,73.0,89.0,-87.0,0,0.471,717.6,85.1,1
175622,1405518047,76.0,86.0,-93.0,0,0.462,717.6,85.1,1
175623,1405526043,73.0,83.0,-99.0,0,0.468,717.6,85.1,1
175624,1405534045,68.0,79.0,-103.0,0,0.456,717.6,85.1,1
175625,1405542044,68.0,77.0,-107.0,0,0.46,717.6,85.1,1
175626,1405550043,62.0,73.0,-111.0,0,0.464,722.4,85.1,1
175627,1405558045,64.0,71.0,-114.0,0,0.459,722.4,85.1,1
175628,1405566044,56.0,67.0,-116.0,0,0.453,722.4,85.1,1
175629,1405574045,51.0,63.0,-119.0,0,0.463,722.4,85.1,1
175630,1405582044,43.0,58.0,-123.0,0,0.474,722.4,85.1,1
175631,1405590046,36.0,53.0,-126.0,0,0.469,722.4,85.1,1
175632,1405598043,33.0,48.0,-130.0,0,0.48,722.4,85.1,1
175633,1405606046,29.0,43.0,-134.0,0,0.484,722.4,85.1,1
175634,1405614043,20.0,38.0,-138.0,0,0.488,722.4,85.1,1
175635,1405622043,15.0,32.0,-142.0,0,0.492,722.4,85.1,1
175636,1405630043,7.0,26.0,-146.0,0,0.496,722.4,85.1,1
175637,1405638046,3.0,21.0,-151.0,0,0.508,722.4,85.1,1
175638,1405646045,0.0,16.0,-155.0,0,0.505,722.4,85.1,3
175639,1405654045,0.0,12.0,-159.0,0,0.508,722.4,85.1,3
175640,1405662043,0.0,9.0,-162.0,0,0.504,722.4,85.1,3
175641,1405670044,0.0,7.0,-164.0,0,0.498,722.4,85.1,3
175642,1405678044,0.0,5.0,-166.0,0,0.499,722.4,85.1,3
175643,1405686043,0.0,4.0,-168.0,0,0.501,722.4,85.1,3
175644,1405694043,0.0,3.0,-169.0,0,0.494,722.4,85.1,3
175645,1405702044,0.0,2.0,-169.0,1,0.487,722.4,85.1,3
175646,1405710043,0.0,2.0,-170.0,0,0.494,722.4,85.1,3
175647,1405718043,0.0,1.0,-170.0,1,0.487,722.4,85.1,3
175648,1405726043,0.0,1.0,-169.0,0,0.492,722.4,85.1,3
175649,1405734043,0.0,1.0,-169.0,1,0.485,722.4,85.1,3
175650,1405742043,0.0,1.0,-168.0,0,0.49,722.4,85.1,3
175651,1405750043,0.0,0.0,-168.0,1,0.483,722.4,85.1,3
175652,1405758043,5.0,2.0,-167.0,0,0.489,722.4,85.1,1
175653,1405766043,13.0,4.0,-165.0,0,0.493,722.4,85.1,1
175654,1405774044,13.0,6.0,-162.0,0,0.497,722.4,85.1,1
175655,1405782045,22.0,10.0,-159.0,0,0.494,722.4,85.1,1
175656,1405790043,27.0,14.0,-156.0,0,0.49,722.4,85.1,1
175657,1405798046,34.0,19.0,-152.0,0,0.493,722.4,85.1,1
175658,1405806043,36.0,23.0,-147.0,0,0.495,722.4,85.1,1
175659,1405814044,38.0,27.0,-143.0,0,0.483,722.4,85.1,1
175660,1405822043,46.0,31.0,-138.0,0,0.485,722.4,85.1,1
175661,1405830044,49.0,36.0,-133.0,0,0.479,722.4,85.1,1
175662,1405838044,53.0,40.0,-128.0,0,0.474,722.4,85.1,1
175663,1405846046,56.0,44.0,-124.0,0,0.461,722.4,85.1,1
175664,1405854043,58.0,47.0,-119.0,0,0.464,722.4,85.1,1
175665,1405862046,60.0,50.0,-115.0,0,0.452,724.0,85.1,1
175666,1405870043,67.0,54.0,-110.0,0,0.454,724.0,85.1,1
175667,1405878043,74.0,59.0,-105.0,0,0.449,724.0,85.1,1
175668,1405886045,81.0,64.0,-100.0,0,0.443,724.0,85.1,1
175669,1405894044,90.0,71.0,-95.0,0,0.438,724.0,85.1,1
175670,1405902045,115.0,81.0,-88.0,0,0.446,724.0,85.1,1
175671,1405910046,139.0,95.0,-78.0,0,0.459,724.0,85.1,1
175672,1405918043,167.0,113.0,-67.0,0,0.455,724.0,85.1,1
175673,1405926043,206.0,135.0,-52.0,0,0.47,724.0,85.1,1
175674,1405934043,243.0,161.0,-34.0,0,0.474,724.0,85.1,1
175675,1405942045,289.0,192.0,-12.0,0,0.478,724.0,85.1,1
175676,1405950044,331.0,226.0,13.0,0,0.514,724.0,85.1,1
175677,1405958045,373.0,262.0,40.0,0,0.552,724.0,85.1,1
175678,1405966043,416.0,299.0,71.0,0,0.604,724.0,85.1,1
175679,1405974046,455.0,337.0,103.0,0,0.643,724.0,85.1,1
175680,1405982044,487.0,373.0,135.0,0,0.678,724.0,85.1,1
175681,1405990045,508.0,406.0,168.0,0,0.717,724.0,85.1,1
175682,1405998043,538.0,438.0,200.0,0,0.744,724.0,85.1,1
175683,1406006044,551.0,465.0,229.0,0,0.758,724.0,85.1,1
175684,1406014044,556.0,487.0,256.0,0,0.77,724.0,85.1,1
175685,1406022045,563.0,506.0,280.0,0,0.771,724.0,85.1,1
175686,1406030046,560.0,519.0,301.0,0,0.767,724.0,85.1,1
175687,1406038046,552.0,527.0,317.0,0,0.742,724.0,85.1,1
175688,1406046046,541.0,530.0,328.0,0,0.711,724.0,85.1,1
175689,1406054045,526.0,529.0,336.0,0,0.692,724.0,85.1,1
175690,1406062043,506.0,524.0,339.0,0,0.655,724.0,85.1,1
175691,1406070045,483.0,514.0,337.0,1,0.645,724.0,85.1,1
175692,1406078043,460.0,501.0,332.0,0,0.662,724.0,85.1,1
175693,1406086043,435.0,485.0,323.0,0,0.684,724.0,85.1,1
175694,1406094043,409.0,466.0,311.0,0,0.696,724.0,85.1,1
175695,1406102044,377.0,445.0,296.0,0,0.705,724.0,85.1,1
175696,1406110043,345.0,421.0,278.0,0,0.71,724.0,85.1,1
175697,1406118043,320.0,396.0,257.0,0,0.71,724.0,85.1,1
175698,1406126043,291.0,371.0,235.0,0,0.694,724.0,85.1,1
175699,1406134044,260.0,344.0,211.0,0,0.681,724.0,85.1,1
175700,1406142043,229.0,316.0,186.0,0,0.659,724.0,85.1,1
175701,1406150047,204.0,289.0,160.0,0,0.635,724.0,85.1,1
175702,1406158044,175.0,261.0,133.0,0,0.61,724.0,85.1,1
175703,1406166044,155.0,235.0,107.0,0,0.575,724.0,85.1,1
175704,1406174043,137.0,212.0,81.0,0,0.547,722.4,85.1,1
175705,1406182047,120.0,189.0,57.0,0,0.511,722.4,85.1,1
175706,1406190044,108.0,170.0,33.0,0,0.487,722.4,85.1,1
175707,1406198043,99.0,153.0,12.0,0,0.465,722.4,85.1,1
175708,1406206043,94.0,138.0,-7.0,0,0.471,722.4,85.1,1
175709,1406214045,85.0,125.0,-25.0,0,0.482,722.4,85.1,1
175710,1406222043,82.0,115.0,-40.0,0,0.477,722.4,85.1,1
175711,1406230044,80.0,106.0,-53.0,0,0.476,722.4,85.1,1
175712,1406238043,82.0,101.0,-64.0,0,0.473,722.4,85.1,1
175713,1406246044,81.0,96.0,-73.0,0,0.467,722.4,85.1,1
175714,1406254043,77.0,91.0,-80.0,0,0.459,722.4,85.1,1
175715,1406262045,79.0,88.0,-86.0,0,0.458,722.4,85.1,1
175716,1406270044,78.0,86.0,-91.0,0,0.455,722.4,85.1,1
175717,1406278046,80.0,84.0,-95.0,0,0.451,722.4,85.1,1
175718,1406286045,77.0,83.0,-98.0,0,0.446,722.4,85.1,1
175719,1406294045,75.0,81.0,-100.0,0,0.44,722.4,85.1,1
175720,1406302043,75.0,79.0,-102.0,0,0.442,722.4,85.1,1
175721,1406310046,64.0,76.0,-104.0,0,0.443,722.4,85.1,1
175722,1406318043,64.0,73.0,-106.0,0,0.444,728.0,84.3,1
175723,1406326043,64.0,71.0,-108.0,0,0.446,728.0,84.3,1
175724,1406334043,56.0,67.0,-111.0,0,0.455,728.0,84.3,1
175725,1406342044,52.0,63.0,-113.0,0,0.449,728.0,84.3,1
175726,1406350043,48.0,60.0,-116.0,0,0.459,728.0,84.3,1
175727,1406358045,44.0,56.0,-118.0,0,0.453,728.0,84.3,1
175728,1406366043,38.0,52.0,-121.0,0,0.463,728.0,84.3,1
175729,1406374045,28.0,46.0,-125.0,0,0.474,728.0,84.3,1
175730,1406382043,27.0,41.0,-128.0,0,0.47,728.0,84.3,1
175731,1406390044,19.0,36.0,-132.0,0,0.481,728.0,84.3,1
175732,1406398043,12.0,30.0,-136.0,0,0.485,728.0,84.3,1
175733,1406406044,8.0,25.0,-140.0,0,0.489,728.0,84.3,1
175734,1406414045,3.0,19.0,-144.0,0,0.493,728.0,84.3,1
175735,1406422043,4.0,16.0,-148.0,0,0.496,728.0,84.3,1
175736,1406430044,0.0,12.0,-151.0,0,0.492,728.0,84.3,3
175737,1406438043,0.0,9.0,-154.0,0,0.494,728.0,84.3,3
175738,1406446044,0.0,7.0,-157.0,0,0.497,728.0,84.3,3
175739,1406454043,0.0,5.0,-159.0,0,0.491,728.0,84.3,3
175740,1406462045,0.0,4.0,-160.0,0,0.484,728.0,84.3,3
175741,1406470043,1.0,3.0,-161.0,0,0.485,728.0,84.3,1
175742,1406478044,3.0,3.0,-161.0,1,0.477,728.0,84.3,1
175743,1406486043,5.0,4.0,-161.0,0,0.476,720.0,84.3,1
175744,1406494043,7.0,4.0,-161.0,0,0.476,720.0,84.3,1
175745,1406502043,11.0,6.0,-159.0,0,0.488,720.0,84.3,1
175746,1406510047,10.0,7.0,-158.0,0,0.479,720.0,84.3,1
175747,1406518043,15.0,9.0,-156.0,0,0.484,720.0,84.3,1
175748,1406526047,19.0,11.0,-154.0,0,0.481,720.0,84.3,1
175749,1406534045,24.0,14.0,-151.0,0,0.485,720.0,84.3,1
175750,1406542043,28.0,18.0,-148.0,0,0.481,720.0,84.3,1
175751,1406550045,36.0,22.0,-144.0,0,0.485,720.0,84.3,1
175752,1406558043,36.0,26.0,-140.0,0,0.48,720.0,84.3,1
175753,1406566044,44.0,30.0,-136.0,0,0.475,720.0,84.3,1
175754,1406574043,46.0,34.0,-131.0,0,0.477,720.0,84.3,1
175755,1406582043,48.0,37.0,-127.0,0,0.465,720.0,84.3,1
175756,1406590045,52.0,41.0,-123.0,0,0.46,720.0,84.3,1
175757,1406598047,60.0,46.0,-118.0,0,0.462,720.0,84.3,1
175758,1406606044,64.0,50.0,-113.0,0,0.457,720.0,84.3,1
175759,1406614045,64.0,53.0,-109.0,0,0.444,720.0,84.3,1
175760,1406622043,73.0,58.0,-104.0,0,0.446,720.0,84.3,1
175761,1406630043,78.0,63.0,-99.0,0,0.441,720.0,84.3,1
175762,1406638043,98.0,71.0,-93.0,0,0.442,720.0,84.3,1
175763,1406646047,120.0,83.0,-85.0,0,0.45,720.0,84.3,1
175764,1406654045,146.0,98.0,-75.0,0,0.455,720.0,84.3,1
175765,1406662044,180.0,118.0,-62.0,0,0.465,720.0,84.3,1
175766,1406670043,215.0,142.0,-46.0,0,0.471,720.0,84.3,1
175767,1406678044,261.0,171.0,-26.0,0,0.478,720.0,84.3,1
175768,1406686043,308.0,204.0,-3.0,0,0.498,720.0,84.3,1
175769,1406694047,356.0,241.0,24.0,0,0.547,720.0,84.3,1
175770,1406702043,403.0,280.0,55.0,0,0.599,720.0,84.3,1
175771,1406710043,441.0,319.0,87.0,0,0.64,720.0,84.3,1
175772,1406718043,484.0,359.0,121.0,0,0.686,720.0,84.3,1
175773,1406726044,516.0,397.0,156.0,0,0.728,720.0,84.3,1
175774,1406734046,544.0,433.0,191.0,0,0.764,720.0,84.3,1
175775,1406742045,572.0,466.0,224.0,0,0.788,720.0,84.3,1
175776,1406750045,590.0,496.0,256.0,0,0.81,720.0,84.3,1
175777,1406758043,597.0,521.0,286.0,0,0.822,720.0,84.3,1
175778,1406766045,604.0,541.0,311.0,0,0.813,720.0,84.3,1
175779,1406774043,603.0,556.0,333.0,0,0.806,720.0,84.3,1
175780,1406782043,602.0,567.0,352.0,0,0.795,720.0,84.3,1
175781,1406790043,586.0,572.0,365.0,0,0.757,720.0,84.3,1
175782,1406798043,572.0,572.0,374.0,0,0.729,720.0,84.3,1
175783,1406806044,560.0,569.0,379.0,0,0.7,720.0,84.3,1
175784,1406814043,535.0,561.0,379.0,1,0.663,720.0,84.3,1
175785,1406822043,516.0,550.0,376.0,0,0.68,720.0,84.3,1
175786,1406830044,488.0,535.0,368.0,0,0.712,720.0,84.3,1
175787,1406838043,464.0,518.0,357.0,0,0.727,720.0,84.3,1
175788,1406846043,437.0,498.0,343.0,0,0.739,720.0,84.3,1
175789,1406854043,408.0,476.0,327.0,0,0.742,720.0,84.3,1
175790,1406862043,377.0,452.0,307.0,0,0.753,720.0,84.3,1
175791,1406870043,346.0,426.0,286.0,0,0.741,720.0,84.3,1
175792,1406878043,316.0,400.0,262.0,0,0.737,720.0,84.3,1
175793,1406886043,283.0,371.0,237.0,0,0.718,720.0,84.3,1
175794,1406894043,252.0,342.0,210.0,0,0.699,720.0,84.3,1
175795,1406902043,224.0,314.0,183.0,0,0.669,720.0,84.3,1
175796,1406910043,195.0,285.0,155.0,0,0.642,720.0,84.3,1
175797,1406918044,173.0,258.0,127.0,0,0.609,720.0,84.3,1
175798,1406926043,154.0,233.0,100.0,0,0.573,720.0,84.3,1
175799,1406934043,132.0,208.0,74.0,0,0.539,720.0,84.3,1
175800,1406942043,120.0,187.0,49.0,0,0.507,720.0,84.3,1
175801,1406950044,110.0,168.0,26.0,0,0.473,720.0,84.3,1
175802,1406958043,98.0,151.0,5.0,0,0.475,720.0,84.3,1
175803,1406966043,88.0,136.0,-15.0,0,0.488,720.0,84.3,1
175804,1406974046,77.0,122.0,-33.0,0,0.494,720.0,84.3,1
175805,1406982045,78.0,111.0,-48.0,0,0.49,720.0,84.3,1
175806,1406990043,70.0,101.0,-62.0,0,0.498,720.0,84.3,1
175807,1406998046,69.0,93.0,-74.0,0,0.496,720.0,84.3,1
175808,1407006044,65.0,86.0,-84.0,0,0.492,720.0,84.3,1
175809,1407014043,67.0,82.0,-92.0,0,0.486,720.0,84.3,1
175810,1407022044,60.0,76.0,-100.0,0,0.494,720.0,84.3,1
175811,1407030043,61.0,73.0,-106.0,0,0.485,720.0,84.3,1
175812,1407038043,60.0,70.0,-111.0,0,0.482,720.0,84.3,1
175813,1407046044,50.0,65.0,-116.0,0,0.487,720.0,84.3,1
175814,1407054043,46.0,60.0,-120.0,0,0.483,720.0,84.3,1
175815,1407062047,42.0,56.0,-124.0,0,0.487,720.0,84.3,1
175816,1407070043,35.0,51.0,-128.0,0,0.49,720.0,84.3,1
175817,1407078047,28.0,45.0,-132.0,0,0.494,720.0,84.3,1
175818,1407086043,23.0,40.0,-137.0,0,0.506,720.0,84.3,1
175819,1407094043,18.0,35.0,-141.0,0,0.502,720.0,84.3,1
175820,1407102045,16.0,30.0,-145.0,0,0.506,720.0,84.3,1
175821,1407110045,12.0,26.0,-149.0,0,0.51,718.4,84.3,1
175822,1407118044,3.0,20.0,-153.0,0,0.513,718.4,84.3,1
175823,1407126043,0.0,15.0,-157.0,0,0.517,718.4,84.3,3
175824,1407134047,0.0,12.0,-161.0,0,0.521,718.4,84.3,3
175825,1407142043,0.0,9.0,-164.0,0,0.516,718.4,84.3,3
175826,1407150044,0.0,7.0,-166.0,0,0.51,718.4,84.3,3
175827,1407158043,0.0,5.0,-168.0,0,0.511,718.4,84.3,3
175828,1407166044,0.0,4.0,-169.0,0,0.504,718.4,84.3,3
175829,1407174043,0.0,3.0,-170.0,0,0.504,718.4,84.3,3
175830,1407182044,0.0,2.0,-171.0,0,0.504,718.4,84.3,3
175831,1407190043,0.0,2.0,-171.0,1,0.495,718.4,84.3,3
175832,1407198044,0.0,1.0,-171.0,0,0.494,718.4,84.3,3
175833,1407206043,0.0,1.0,-170.0,0,0.499,718.4,84.3,3
175834,1407214044,0.0,1.0,-170.0,1,0.491,718.4,84.3,3
175835,1407222043,0.0,1.0,-169.0,0,0.497,718.4,84.3,3
175836,1407230043,0.0,0.0,-169.0,1,0.489,718.4,84.3,3
175837,1407238043,0.0,0.0,-168.0,0,0.494,718.4,84.3,3
175838,1407246045,0.0,0.0,-167.0,0,0.492,718.4,84.3,3
175839,1407254043,0.0,0.0,-166.0,0,0.491,718.4,84.3,3
175840,1407262044,10.0,3.0,-164.0,0,0.495,718.4,84.3,1
175841,1407270044,16.0,6.0,-162.0,0,0.493,718.4,84.3,1
175842,1407278047,20.0,9.0,-159.0,0,0.496,718.4,84.3,1
175843,1407286045,26.0,13.0,-156.0,0,0.493,718.4,84.3,1
175844,1407294043,27.0,17.0,-152.0,0,0.496,718.4,84.3,1
175845,1407302045,32.0,20.0,-148.0,0,0.491,718.4,84.3,1
175846,1407310044,36.0,24.0,-144.0,0,0.486,718.4,84.3,1
175847,1407318045,39.0,28.0,-139.0,0,0.488,718.4,84.3,1
175848,1407326043,46.0,32.0,-135.0,0,0.475,718.4,84.3,1
175849,1407334045,51.0,37.0,-130.0,0,0.477,718.4,84.3,1
175850,1407342043,56.0,41.0,-125.0,0,0.471,718.4,84.3,1
175851,1407350045,56.0,45.0,-120.0,0,0.466,718.4,84.3,1
175852,1407358045,60.0,49.0,-116.0,0,0.453,718.4,84.3,1
175853,1407366043,64.0,52.0,-111.0,0,0.455,718.4,84.3,1
175854,1407374043,66.0,56.0,-107.0,0,0.443,718.4,84.3,1
175855,1407382045,72.0,60.0,-102.0,0,0.445,718.4,84.3,1
175856,1407390043,73.0,63.0,-98.0,0,0.433,718.4,84.3,1
175857,1407398044,83.0,68.0,-93.0,0,0.435,718.4,84.3,1
175858,1407406044,92.0,74.0,-88.0,0,0.43,718.4,84.3,1
175859,1407414045,104.0,81.0,-82.0,0,0.431,718.4,84.3,1
175860,1407422045,127.0,92.0,-75.0,0,0.432,718.4,84.3,1
175861,1407430043,154.0,107.0,-65.0,0,0.445,718.4,84.3,1
175862,1407438043,189.0,127.0,-52.0,0,0.455,718.4,84.3,1
175863,1407446045,232.0,152.0,-36.0,0,0.461,718.4,84.3,1
175864,1407454043,273.0,182.0,-16.0,0,0.469,718.4,84.3,1
175865,1407462043,324.0,216.0,8.0,0,0.513,718.4,84.3,1
175866,1407470043,375.0,255.0,36.0,0,0.564,718.4,84.3,1
175867,1407478045,428.0,297.0,67.0,0,0.612,718.4,84.3,1
175868,1407486043,469.0,338.0,102.0,0,0.666,718.4,84.3,1
175869,1407494044,508.0,380.0,137.0,0,0.706,718.4,84.3,1
175870,1407502043,550.0,421.0,174.0,0,0.752,718.4,84.3,1
175871,1407510043,578.0,459.0,211.0,0,0.788,718.4,84.3,1
175872,1407518045,605.0,494.0,246.0,0,0.812,718.4,84.3,1
175873,1407526044,620.0,525.0,280.0,0,0.834,718.4,84.3,1
175874,1407534043,632.0,551.0,310.0,0,0.836,718.4,84.3,1
175875,1407542043,637.0,572.0,337.0,0,0.836,718.4,84.3,1
175876,1407550046,636.0,587.0,360.0,0,0.824,718.4,84.3,1
175877,1407558043,635.0,599.0,379.0,0,0.806,718.4,84.3,1
175878,1407566043,621.0,604.0,394.0,0,0.782,718.4,84.3,1
175879,1407574043,610.0,606.0,403.0,0,0.739,718.4,84.3,1
175880,1407582046,593.0,603.0,409.0,0,0.718,718.4,84.3,1
175881,1407590043,572.0,595.0,409.0,1,0.673,718.4,84.3,1
175882,1407598043,550.0,584.0,406.0,0,0.691,718.4,84.3,1
175883,1407606043,528.0,571.0,399.0,0,0.716,718.4,84.3,1
175884,1407614043,499.0,553.0,389.0,0,0.732,718.4,84.3,1
175885,1407622044,471.0,533.0,375.0,0,0.753,718.4,84.3,1
175886,1407630043,439.0,510.0,358.0,0,0.763,718.4,84.3,1
175887,1407638044,404.0,485.0,337.0,0,0.775,718.4,84.3,1
175888,1407646043,377.0,459.0,315.0,0,0.763,718.4,84.3,1
175889,1407654043,336.0,429.0,290.0,0,0.76,718.4,84.3,1
175890,1407662043,307.0,399.0,264.0,0,0.741,718.4,84.3,1
175891,1407670044,277.0,370.0,236.0,0,0.723,718.4,84.3,1
175892,1407678043,245.0,339.0,207.0,0,0.697,718.4,84.3,1
175893,1407686045,213.0,309.0,178.0,0,0.664,718.4,84.3,1
175894,1407694045,188.0,280.0,148.0,0,0.634,718.4,84.3,1
175895,1407702043,166.0,252.0,119.0,0,0.597,718.4,84.3,1
175896,1407710043,144.0,226.0,91.0,0,0.56,718.4,84.3,1
175897,1407718046,132.0,203.0,64.0,0,0.526,718.4,84.3,1
175898,1407726043,112.0,181.0,39.0,0,0.49,718.4,84.3,1
175899,1407734045,101.0,162.0,15.0,0,0.484,723.2,84.3,1
175900,1407742043,92.0,145.0,-6.0,0,0.487,723.2,84.3,1
175901,1407750045,80.0,129.0,-26.0,0,0.501,723.2,84.3,1
175902,1407758044,74.0,116.0,-44.0,0,0.507,723.2,84.3,1
175903,1407766043,64.0,103.0,-60.0,0,0.511,723.2,84.3,1
175904,1407774043,62.0,93.0,-74.0,0,0.512,723.2,84.3,1
175905,1407782045,60.0,85.0,-86.0,0,0.511,729.6,83.3,1
175906,1407790044,52.0,77.0,-97.0,0,0.515,729.6,83.3,1
175907,1407798043,48.0,70.0,-106.0,0,0.51,729.6,83.3,1
175908,1407806045,48.0,65.0,-114.0,0,0.511,729.6,83.3,1
175909,1407814043,39.0,58.0,-121.0,0,0.511,729.6,83.3,1
175910,1407822045,33.0,52.0,-128.0,0,0.518,729.6,83.3,1
175911,1407830047,25.0,46.0,-134.0,0,0.516,729.6,83.3,1
175912,1407838044,20.0,39.0,-140.0,0,0.522,729.6,83.3,1
175913,1407846043,16.0,34.0,-146.0,0,0.527,729.6,83.3,1
175914,1407854043,8.0,28.0,-152.0,0,0.533,729.6,83.3,1
175915,1407862046,3.0,22.0,-157.0,0,0.53,729.6,83.3,1
175916,1407870043,0.0,16.0,-162.0,0,0.535,729.6,83.3,3
175917,1407878045,0.0,12.0,-166.0,0,0.531,729.6,83.3,3
175918,1407886047,0.0,9.0,-170.0,0,0.534,729.6,83.3,3
175919,1407894043,0.0,7.0,-173.0,0,0.529,729.6,83.3,3
175920,1407902047,0.0,5.0,-175.0,0,0.523,729.6,83.3,3
175921,1407910043,0.0,4.0,-176.0,0,0.517,729.6,83.3,3
175922,1407918044,0.0,3.0,-178.0,0,0.525,729.6,83.3,3
175923,1407926043,0.0,2.0,-178.0,1,0.51,729.6,83.3,3
175924,1407934046,0.0,2.0,-178.0,0,0.509,729.6,83.3,3
175925,1407942043,0.0,1.0,-178.0,0,0.508,729.6,83.3,3
175926,1407950044,0.0,1.0,-178.0,0,0.507,729.6,83.3,3
175927,1407958043,0.0,1.0,-178.0,0,0.506,729.6,83.3,3
175928,1407966045,0.0,1.0,-177.0,0,0.51,729.6,83.3,3
175929,1407974044,0.0,0.0,-176.0,0,0.508,729.6,83.3,3
175930,1407982045,0.0,0.0,-176.0,1,0.5,729.6,83.3,3
175931,1407990044,0.0,0.0,-175.0,0,0.505,729.6,83.3,3
175932,1407998045,0.0,0.0,-174.0,0,0.503,729.6,83.3,3
175933,1408006043,0.0,0.0,-173.0,0,0.5,729.6,83.3,3
175934,1408014043,0.0,0.0,-172.0,0,0.498,729.6,83.3,3
175935,1408022043,0.0,0.0,-171.0,0,0.496,729.6,83.3,3
175936,1408030044,0.0,0.0,-170.0,0,0.495,729.6,83.3,3
175937,1408038043,0.0,0.0,-169.0,0,0.493,729.6,83.3,3
175938,1408046044,0.0,0.0,-168.0,0,0.491,731.2,83.3,3
175939,1408054043,2.0,1.0,-166.0,0,0.496,731.2,83.3,1
175940,1408062044,7.0,2.0,-165.0,0,0.487,731.2,83.3,1
175941,1408070043,12.0,4.0,-163.0,0,0.491,731.2,83.3,1
175942,1408078046,18.0,8.0,-160.0,0,0.495,731.2,83.3,1
175943,1408086047,22.0,11.0,-157.0,0,0.491,731.2,83.3,1
175944,1408094043,21.0,14.0,-153.0,0,0.494,731.2,83.3,1
175945,1408102044,29.0,17.0,-150.0,0,0.483,731.2,83.3,1
175946,1408110044,32.0,21.0,-146.0,0,0.486,731.2,83.3,1
175947,1408118044,38.0,25.0,-142.0,0,0.481,731.2,83.3,1
175948,1408126044,40.0,29.0,-137.0,0,0.483,731.2,83.3,1
175949,1408134046,42.0,32.0,-133.0,0,0.47,731.2,83.3,1
175950,1408142043,49.0,36.0,-129.0,0,0.465,731.2,83.3,1
175951,1408150043,53.0,40.0,-124.0,0,0.467,731.2,83.3,1
175952,1408158043,63.0,46.0,-119.0,0,0.462,731.2,83.3,1
175953,1408166046,72.0,52.0,-113.0,0,0.463,731.2,83.3,1
175954,1408174045,89.0,61.0,-107.0,0,0.456,731.2,83.3,1
175955,1408182046,111.0,73.0,-98.0,0,0.47,731.2,83.3,1
175956,1408190045,140.0,89.0,-87.0,0,0.474,731.2,83.3,1
175957,1408198045,176.0,110.0,-74.0,0,0.475,731.2,83.3,1
175958,1408206046,221.0,137.0,-56.0,0,0.493,731.2,83.3,1
175959,1408214044,265.0,168.0,-35.0,0,0.491,731.2,83.3,1
175960,1408222047,310.0,203.0,-10.0,0,0.5,731.2,83.3,1
175961,1408230043,359.0,240.0,19.0,0,0.549,731.2,83.3,1
175962,1408238043,403.0,280.0,50.0,0,0.59,731.2,83.3,1
175963,1408246043,444.0,320.0,83.0,0,0.634,731.2,83.3,1
175964,1408254044,484.0,360.0,118.0,0,0.68,731.2,83.3,1
175965,1408262043,516.0,397.0,154.0,0,0.723,731.2,83.3,1
175966,1408270047,545.0,433.0,188.0,0,0.751,731.2,83.3,1
175967,1408278045,560.0,464.0,222.0,0,0.782,731.2,83.3,1
175968,1408286047,577.0,491.0,252.0,0,0.791,731.2,83.3,1
175969,1408294045,582.0,513.0,280.0,0,0.802,731.2,83.3,1
175970,1408302044,592.0,532.0,305.0,0,0.802,731.2,83.3,1
175971,1408310045,591.0,547.0,326.0,0,0.789,731.2,83.3,1
175972,1408318047,581.0,555.0,342.0,0,0.763,731.2,83.3,1
175973,1408326043,573.0,559.0,354.0,0,0.739,731.2,83.3,1
175974,1408334046,560.0,559.0,363.0,0,0.719,731.2,83.3,1
175975,1408342045,538.0,554.0,366.0,0,0.675,731.2,83.3,1
175976,1408350046,518.0,545.0,365.0,1,0.659,731.2,83.3,1
175977,1408358043,499.0,534.0,361.0,0,0.676,731.2,83.3,1
175978,1408366045,476.0,520.0,353.0,0,0.699,731.2,83.3,1
175979,1408374046,448.0,503.0,342.0,0,0.713,731.2,83.3,1
175980,1408382045,417.0,482.0,328.0,0,0.725,731.2,83.3,1
175981,1408390043,383.0,458.0,310.0,0,0.739,731.2,83.3,1
175982,1408398044,360.0,434.0,290.0,0,0.735,731.2,83.3,1
175983,1408406043,325.0,408.0,268.0,0,0.728,731.2,83.3,1
175984,1408414045,291.0,379.0,244.0,0,0.716,731.2,83.3,1
175985,1408422043,268.0,352.0,219.0,0,0.696,731.2,83.3,1
175986,1408430044,234.0,324.0,192.0,0,0.677,731.2,83.3,1
175987,1408438043,208.0,296.0,165.0,0,0.646,731.2,83.3,1
175988,1408446045,184.0,269.0,138.0,0,0.615,731.2,83.3,1
175989,1408454043,161.0,243.0,111.0,0,0.584,731.2,83.3,1
175990,1408462046,143.0,218.0,84.0,0,0.554,731.2,83.3,1
175991,1408470044,121.0,195.0,59.0,0,0.516,731.2,83.3,1
175992,1408478043,109.0,174.0,35.0,0,0.486,731.2,83.3,1
175993,1408486043,102.0,157.0,13.0,0,0.47,731.2,83.3,1
175994,1408494043,86.0,139.0,-8.0,0,0.485,731.2,83.3,1
175995,1408502043,84.0,126.0,-26.0,0,0.484,731.2,83.3,1
175996,1408510043,76.0,114.0,-43.0,0,0.495,731.2,83.3,1
175997,1408518044,68.0,103.0,-57.0,0,0.489,731.2,83.3,1
175998,1408526043,67.0,94.0,-70.0,0,0.496,750.4,80.6,1
175999,1408534047,56.0,85.0,-82.0,0,0.502,750.4,80.6,1
176000,1408542043,53.0,77.0,-92.0,0,0.499,750.4,80.6,1
176001,1408550047,45.0,69.0,-101.0,0,0.501,750.4,80.6,1
176002,1408558047,43.0,63.0,-110.0,0,0.51,750.4,80.6,1
176003,1408566043,36.0,56.0,-117.0,0,0.503,750.4,80.6,1
176004,1408574046,35.0,51.0,-124.0,0,0.51,750.4,80.6,1
176005,1408582043,28.0,46.0,-130.0,0,0.508,750.4,80.6,1
176006,1408590046,25.0,41.0,-135.0,0,0.505,750.4,80.6,1
176007,1408598043,17.0,35.0,-140.0,0,0.51,750.4,80.6,1
176008,1408606046,10.0,29.0,-146.0,0,0.522,750.4,80.6,1
176009,1408614043,5.0,23.0,-151.0,0,0.52,750.4,80.6,1
176010,1408622043,4.0,18.0,-155.0,0,0.516,750.4,80.6,1
176011,1408630043,0.0,14.0,-159.0,0,0.519,750.4,80.6,3
176012,1408638046,0.0,11.0,-163.0,0,0.522,750.4,80.6,3
176013,1408646044,0.0,8.0,-166.0,0,0.517,750.4,80.6,3
176014,1408654044,0.0,6.0,-168.0,0,0.511,750.4,80.6,3
176015,1408662043,0.0,5.0,-170.0,0,0.512,750.4,80.6,3
176016,1408670043,0.0,3.0,-171.0,0,0.506,747.2,80.6,3
176017,1408678043,0.0,3.0,-172.0,0,0.506,747.2,80.6,3
176018,1408686043,0.0,2.0,-173.0,0,0.506,747.2,80.6,3
176019,1408694044,0.0,2.0,-173.0,1,0.498,747.2,80.6,3
176020,1408702043,0.0,1.0,-173.0,0,0.496,747.2,80.6,3
176021,1408710043,0.0,1.0,-172.0,0,0.501,747.2,80.6,3
176022,1408718044,0.0,1.0,-172.0,1,0.493,747.2,80.6,3
176023,1408726047,0.0,0.0,-171.0,0,0.498,747.2,80.6,3
176024,1408734045,0.0,0.0,-170.0,0,0.496,747.2,80.6,3
176025,1408742043,0.0,0.0,-170.0,1,0.488,747.2,80.6,3
176026,1408750043,0.0,0.0,-169.0,0,0.493,747.2,80.6,3
176027,1408758043,0.0,0.0,-168.0,0,0.491,747.2,80.6,3
176028,1408766043,0.0,0.0,-167.0,0,0.489,747.2,80.6,3
176029,1408774044,0.0,0.0,-166.0,0,0.487,747.2,80.6,3
176030,1408782043,0.0,0.0,-165.0,0,0.485,747.2,80.6,3
176031,1408790043,0.0,0.0,-164.0,0,0.483,747.2,80.6,3
176032,1408798043,2.0,1.0,-163.0,0,0.482,747.2,80.6,1
176033,1408806045,7.0,2.0,-161.0,0,0.486,747.2,80.6,1
176034,1408814045,9.0,4.0,-159.0,0,0.484,747.2,80.6,1
176035,1408822043,16.0,7.0,-157.0,0,0.481,747.2,80.6,1
176036,1408830045,16.0,9.0,-154.0,0,0.485,747.2,80.6,1
176037,1408838046,20.0,12.0,-151.0,0,0.481,747.2,80.6,1
176038,1408846043,23.0,14.0,-148.0,0,0.477,747.2,80.6,1
176039,1408854047,27.0,17.0,-144.0,0,0.48,747.2,80.6,1
176040,1408862044,33.0,21.0,-141.0,0,0.469,747.2,80.6,1
176041,1408870046,39.0,26.0,-137.0,0,0.472,747.2,80.6,1
176042,1408878044,47.0,31.0,-132.0,0,0.474,747.2,80.6,1
176043,1408886044,57.0,37.0,-126.0,0,0.475,747.2,80.6,1
176044,1408894046,70.0,45.0,-120.0,0,0.468,747.2,80.6,1
176045,1408902047,94.0,57.0,-112.0,0,0.474,747.2,80.6,1
176046,1408910045,116.0,71.0,-102.0,0,0.479,747.2,80.6,1
176047,1408918043,153.0,91.0,-89.0,0,0.488,747.2,80.6,1
176048,1408926045,194.0,116.0,-73.0,0,0.493,747.2,80.6,1
176049,1408934045,231.0,144.0,-53.0,0,0.5,747.2,80.6,1
176050,1408942043,279.0,177.0,-30.0,0,0.495,747.2,80.6,1
176051,1408950046,324.0,212.0,-3.0,0,0.513,747.2,80.6,1
176052,1408958046,372.0,251.0,27.0,0,0.557,747.2,80.6,1
176053,1408966046,415.0,291.0,60.0,0,0.604,747.2,80.6,1
176054,1408974044,453.0,330.0,94.0,0,0.644,747.2,80.6,1
176055,1408982047,490.0,369.0,129.0,0,0.685,747.2,80.6,1
176056,1408990044,517.0,405.0,164.0,0,0.722,747.2,80.6,1
176057,1408998047,541.0,438.0,197.0,0,0.747,747.2,80.6,1
176058,1409006044,556.0,466.0,229.0,0,0.772,747.2,80.6,1
176059,1409014045,567.0,491.0,258.0,0,0.782,747.2,80.6,1
176060,1409022043,571.0,510.0,284.0,0,0.785,747.2,80.6,1
176061,1409030045,571.0,525.0,305.0,0,0.769,747.2,80.6,1
176062,1409038043,565.0,535.0,323.0,0,0.759,747.2,80.6,1
176063,1409046045,558.0,540.0,337.0,0,0.738,747.2,80.6,1
176064,1409054043,544.0,541.0,346.0,0,0.705,747.2,80.6,1
176065,1409062044,527.0,538.0,351.0,0,0.677,747.2,80.6,1
176066,1409070043,508.0,531.0,351.0,1,0.641,747.2,80.6,1
176067,1409078044,484.0,519.0,348.0,0,0.657,747.2,80.6,1
176068,1409086043,459.0,505.0,341.0,0,0.68,747.2,80.6,1
176069,1409094045,431.0,487.0,330.0,0,0.701,747.2,80.6,1
176070,1409102043,409.0,468.0,316.0,0,0.712,747.2,80.6,1
176071,1409110043,374.0,445.0,300.0,0,0.712,747.2,80.6,1
176072,1409118043,345.0,421.0,280.0,0,0.722,747.2,80.6,1
176073,1409126043,321.0,397.0,259.0,0,0.709,747.2,80.6,1
176074,1409134043,284.0,369.0,236.0,0,0.698,747.2,80.6,1
176075,1409142043,255.0,342.0,211.0,0,0.683,747.2,80.6,1
176076,1409150043,228.0,314.0,185.0,0,0.66,747.2,80.6,1
176077,1409158043,201.0,287.0,159.0,0,0.631,747.2,80.6,1
176078,1409166043,178.0,260.0,132.0,0,0.606,747.2,80.6,1
176079,1409174043,154.0,235.0,106.0,0,0.572,747.2,80.6,1
176080,1409182043,135.0,210.0,80.0,0,0.543,747.2,80.6,1
176081,1409190043,119.0,188.0,56.0,0,0.507,747.2,80.6,1
176082,1409198043,108.0,169.0,32.0,0,0.483,747.2,80.6,1
176083,1409206044,92.0,150.0,11.0,0,0.462,747.2,80.6,1
176084,1409214043,86.0,135.0,-9.0,0,0.475,747.2,80.6,1
176085,1409222045,79.0,121.0,-27.0,0,0.48,747.2,80.6,1
176086,1409230043,73.0,109.0,-43.0,0,0.484,747.2,80.6,1
176087,1409238045,74.0,101.0,-57.0,0,0.485,747.2,80.6,1
176088,1409246045,64.0,92.0,-69.0,0,0.483,747.2,80.6,1
176089,1409254045,64.0,85.0,-80.0,0,0.488,747.2,80.6,1
176090,1409262044,60.0,79.0,-88.0,0,0.475,747.2,80.6,1
176091,1409270045,56.0,73.0,-96.0,0,0.484,747.2,80.6,1
176092,1409278045,54.0,69.0,-103.0,0,0.484,747.2,80.6,1
176093,1409286044,52.0,65.0,-109.0,0,0.483,747.2,80.6,1
176094,1409294047,51.0,61.0,-113.0,0,0.473,742.4,80.6,1
176095,1409302047,48.0,58.0,-118.0,0,0.484,742.4,80.6,1
176096,1409310048,40.0,54.0,-121.0,0,0.473,742.4,80.6,1
176097,1409318043,39.0,50.0,-125.0,0,0.483,742.4,80.6,1
176098,1409326045,29.0,45.0,-129.0,0,0.486,742.4,80.6,1
176099,1409334044,23.0,40.0,-133.0,0,0.49,742.4,80.6,1
176100,1409342045,24.0,36.0,-136.0,0,0.485,742.4,80.6,1
176101,1409350044,18.0,32.0,-140.0,0,0.496,742.4,80.6,1
176102,1409358043,15.0,28.0,-143.0,0,0.491,742.4,80.6,1
176103,1409366044,9.0,23.0,-147.0,0,0.501,742.4,80.6,1
176104,1409374047,8.0,19.0,-150.0,0,0.496,742.4,80.6,1
176105,1409382046,2.0,15.0,-153.0,0,0.499,742.4,80.6,1
176106,1409390043,2.0,12.0,-156.0,0,0.501,742.4,80.6,1
176107,1409398046,0.0,9.0,-158.0,0,0.495,742.4,80.6,3
176108,1409406045,0.0,7.0,-161.0,0,0.505,742.4,80.6,3
176109,1409414044,0.0,5.0,-162.0,0,0.491,742.4,80.6,3
176110,1409422045,0.0,4.0,-164.0,0,0.499,742.4,80.6,3
