seq,t_us,rr_ms,hr_bpm,score,flags
1919,15906625,816.0,0.0,0.692,185
1936,16042625,136.0,0.0,0.573,173
2058,17018620,975.0,0.0,0.551,169
2156,17802625,784.0,0.0,0.501,169
2262,18650625,848.0,0.0,0.238,185
2367,19490623,839.0,0.0,0.72,169
2482,20410625,920.0,0.0,0.534,169
2593,21298620,887.0,0.0,0.595,185
2605,21394624,96.0,0.0,0.518,189
2709,22226623,831.0,0.0,0.656,169
2824,23146625,920.0,0.0,0.505,169
2911,23842625,696.0,0.0,0.609,169
3018,24698625,856.0,0.0,0.217,185
3136,25642622,943.0,0.0,0.638,169
3246,26522621,879.0,0.0,0.433,185
3354,27386623,864.0,0.0,0.211,185
3485,28434625,1048.0,0.0,0.657,169
3580,29194625,760.0,0.0,0.683,169
3680,29994623,799.0,0.0,0.685,169
3798,30938625,768.0,0.0,0.658,169
3894,31706625,768.0,0.0,0.572,169
3983,32418620,711.0,0.0,0.493,185
4071,33122623,704.0,0.0,0.55,169
4159,33826622,703.0,0.0,0.733,169
4255,34594625,768.0,0.0,0.583,169
4349,35346620,751.0,0.0,0.587,169
4429,35986624,640.0,0.0,0.667,169
4530,36794625,808.0,0.0,0.217,185
4624,37546624,751.0,0.0,0.64,169
4727,38370624,824.0,0.0,0.615,169
4831,39202624,832.0,0.0,0.615,169
4921,39922625,720.0,0.0,0.538,169
5004,40586625,664.0,0.0,0.617,169
5102,41370625,784.0,0.0,0.57,169
5183,42018625,648.0,0.0,0.657,169
5207,42210623,191.0,0.0,0.48,189
5370,43514625,1304.0,0.0,0.223,185
5475,44354625,840.0,0.0,0.662,169
5570,45114622,759.0,0.0,0.698,169
5644,45706625,592.0,0.0,0.717,169
5758,46618625,912.0,0.0,0.511,169
5850,47354625,736.0,0.0,0.636,169
5943,48098620,743.0,0.0,0.638,169
5961,48242625,144.0,0.0,0.451,189
6055,48994625,752.0,0.0,0.584,169
6145,49714625,720.0,0.0,0.539,169
6249,50546625,832.0,0.0,0.634,169
6354,51386625,840.0,0.0,0.503,169
6429,51986625,600.0,0.0,0.577,169
6501,52562623,575.0,0.0,0.685,169
6609,53426625,864.0,0.0,0.65,169
6691,54082625,656.0,0.0,0.694,169
6781,54802625,720.0,0.0,0.651,169
6805,54994621,191.0,0.0,0.511,189
6893,55698625,704.0,0.0,0.578,169
6979,56386624,687.0,0.0,0.687,169
7075,57154624,768.0,0.0,0.701,169
7174,57946625,792.0,0.0,0.546,169
7276,58762625,816.0,0.0,0.531,169
7359,59426625,664.0,0.0,0.648,169
7446,60122625,696.0,0.0,0.624,169
7537,60850623,727.0,0.0,0.63,169
7638,61658624,808.0,0.0,0.252,185
7736,62442623,783.0,0.0,0.631,169
7822,63130621,687.0,0.0,0.624,169
7926,63962621,832.0,0.0,0.598,169
8011,64642623,680.0,0.0,0.652,169
8101,65362622,719.0,0.0,0.655,169
8192,66090625,728.0,0.0,0.562,169
8287,66850625,760.0,0.0,0.549,169
8353,67378625,528.0,0.0,0.721,169
8446,68122625,744.0,0.0,0.701,169
8549,68946625,824.0,0.0,0.571,169
8630,69594625,648.0,0.0,0.609,169
8724,70346625,752.0,0.0,0.57,185
8809,71026625,680.0,0.0,0.628,185
8898,71738625,712.0,0.0,0.242,185
8997,72530625,792.0,0.0,0.647,169
9097,73330625,800.0,0.0,0.671,169
9166,73882625,552.0,0.0,0.698,169
9288,74858625,976.0,0.0,0.422,185
9375,75554626,696.0,0.0,0.578,169
9463,76258625,703.0,0.0,0.579,169
9538,76858625,600.0,0.0,0.652,169
9640,77674625,816.0,0.0,0.588,169
9725,78354623,679.0,0.0,0.656,169
9814,79066623,712.0,0.0,0.635,185
9825,79154625,88.0,0.0,0.448,189
9916,79882621,727.0,0.0,0.519,169
10003,80578625,696.0,0.0,0.56,169
10090,81274623,695.0,0.0,0.579,169
10242,82490623,1216.0,0.0,0.223,185
10410,83834625,1344.0,0.0,0.248,185
10511,84642625,808.0,0.0,0.53,169
10645,85714624,1071.0,0.0,0.644,169
10740,86474625,760.0,0.0,0.581,185
10821,87122625,648.0,0.0,0.642,169
10836,87242621,119.0,0.0,0.501,189
10934,88026625,784.0,0.0,0.634,169
11015,88674625,648.0,0.0,0.686,169
11126,89562622,887.0,0.0,0.531,169
11227,90370625,808.0,0.0,0.545,169
11316,91082625,712.0,0.0,0.666,169
11409,91826624,743.0,0.0,0.608,169
11443,92098624,272.0,0.0,0.451,189
11529,92786623,687.0,0.0,0.482,185
11615,93474621,687.0,0.0,0.583,169
11685,94034620,559.0,0.0,0.769,169
11798,94938625,904.0,0.0,0.683,169
11871,95522622,583.0,0.0,0.71,169
11986,96442621,919.0,0.0,0.477,185
12066,97082625,640.0,0.0,0.559,169
12147,97730621,647.0,0.0,0.697,169
12241,98482625,752.0,0.0,0.666,169
12331,99202622,719.0,0.0,0.639,169
12360,99434621,231.0,0.0,0.482,189
12435,100034625,600.0,0.0,0.613,169
12531,100802625,768.0,0.0,0.673,169
12613,101458625,656.0,0.0,0.759,169
12716,102282625,824.0,0.0,0.673,169
12795,102914621,631.0,0.0,0.7,169
12899,103746625,832.0,0.0,0.577,169
12991,104482625,736.0,0.0,0.651,169
13091,105282625,800.0,0.0,0.636,185
13106,105402625,120.0,0.0,0.525,173
13213,106258622,855.0,0.0,0.548,169
13300,106954624,696.0,0.0,0.687,169
13401,107762624,808.0,0.0,0.695,169
13517,108690625,928.0,0.0,0.616,185
13529,108786625,96.0,0.0,0.562,173
13611,109442625,656.0,0.0,0.714,169
13730,110394625,952.0,0.0,0.524,169
13817,111090625,696.0,0.0,0.722,169
13927,111970625,880.0,0.0,0.547,169
13941,112082625,112.0,0.0,0.442,189
14050,112954625,872.0,0.0,0.454,185
14136,113642625,688.0,0.0,0.501,169
14221,114322625,680.0,0.0,0.639,169
14311,115042625,720.0,0.0,0.605,169
14401,115762622,719.0,0.0,0.585,169
14483,116418623,656.0,0.0,0.667,169
14568,117098625,680.0,0.0,0.704,169
14658,117818623,719.0,0.0,0.656,169
14757,118610625,792.0,0.0,0.549,169
14843,119298625,688.0,0.0,0.649,169
14946,120122623,823.0,0.0,0.222,185
15077,121170625,1048.0,0.0,0.534,169
15168,121898622,727.0,0.0,0.713,169
15271,122722625,824.0,0.0,0.625,169
15286,122842625,120.0,0.0,0.445,189
15397,123730622,887.0,0.0,0.709,169
15520,124714625,984.0,0.0,0.528,169
15601,125362621,647.0,0.0,0.628,169
15625,125554622,192.0,0.0,0.501,189
15720,126314623,760.0,0.0,0.615,169
15852,127370622,1055.0,0.0,0.416,185
15928,127978621,607.0,0.0,0.663,169
16020,128714620,735.0,0.0,0.669,169
16122,129530625,816.0,0.0,0.218,185
16234,130426625,896.0,0.0,0.543,169
16322,131130624,703.0,0.0,0.564,169
16423,131938625,808.0,0.0,0.513,169
16500,132554625,616.0,0.0,0.676,169
16593,133298624,743.0,0.0,0.563,169
16686,134042624,744.0,0.0,0.689,169
16792,134890621,847.0,0.0,0.562,185
16798,134938623,48.0,0.0,0.468,189
16904,135786625,848.0,0.0,0.6,169
16996,136522623,735.0,0.0,0.642,169
17114,137466625,944.0,0.0,0.609,169
17200,138154625,688.0,0.0,0.643,169
17298,138938625,784.0,0.0,0.208,185
17427,139970625,1032.0,0.0,0.63,169
17525,140754625,784.0,0.0,0.592,169
17618,141498625,744.0,0.0,0.626,169
17713,142258621,759.0,0.0,0.617,185
17732,142410623,152.0,0.0,0.512,173
17838,143258625,848.0,0.0,0.622,169
17936,144042625,784.0,0.0,0.643,169
18031,144802625,760.0,0.0,0.554,169
18114,145466625,664.0,0.0,0.643,169
18222,146330625,864.0,0.0,0.239,185
18319,147106625,776.0,0.0,0.707,169
18423,147938620,831.0,0.0,0.552,169
18518,148698625,760.0,0.0,0.528,169
18597,149330625,632.0,0.0,0.695,169
18688,150058624,727.0,0.0,0.661,169
18787,150850621,791.0,0.0,0.641,169
18894,151706625,856.0,0.0,0.223,185
18993,152498623,791.0,0.0,0.579,169
19093,153298623,800.0,0.0,0.64,169
19208,154218621,919.0,0.0,0.509,169
19309,155026623,808.0,0.0,0.548,185
19396,155722625,696.0,0.0,0.601,185
19425,155954621,231.0,0.0,0.519,173
19526,156762623,808.0,0.0,0.563,169
19632,157610625,848.0,0.0,0.58,169
19653,157778622,167.0,0.0,0.448,189
19746,158522625,744.0,0.0,0.588,169
19863,159458623,935.0,0.0,0.464,185
19959,160226625,768.0,0.0,0.531,169
20046,160922621,695.0,0.0,0.679,169
20075,161154622,232.0,0.0,0.494,189
20165,161874621,719.0,0.0,0.528,169
20257,162610625,736.0,0.0,0.635,169
20362,163450625,840.0,0.0,0.637,169
20457,164210625,760.0,0.0,0.597,169
20556,165002623,791.0,0.0,0.563,169
20652,165770625,768.0,0.0,0.531,185
20661,165842622,71.0,0.0,0.447,189
20754,166586625,744.0,0.0,0.572,169
20847,167330625,744.0,0.0,0.649,169
20951,168162625,832.0,0.0,0.585,169
21027,168770625,608.0,0.0,0.684,169
21134,169626625,856.0,0.0,0.637,169
21243,170498625,872.0,0.0,0.587,185
21252,170570625,72.0,0.0,0.506,189
21352,171370624,799.0,0.0,0.585,169
21439,172066625,696.0,0.0,0.579,169
21541,172882625,816.0,0.0,0.567,169
21612,173450625,568.0,0.0,0.721,169
21714,174266625,816.0,0.0,0.754,169
21828,175178625,912.0,0.0,0.452,185
21901,175762625,584.0,0.0,0.581,169
21987,176450624,687.0,0.0,0.616,169
22076,177162623,711.0,0.0,0.62,169
22165,177874624,712.0,0.0,0.626,185
22173,177938623,63.0,0.0,0.455,189
22258,178618622,679.0,0.0,0.462,185
22362,179450623,832.0,0.0,0.522,169
22448,180138622,687.0,0.0,0.651,169
22547,180930625,792.0,0.0,0.536,169
22628,181578625,648.0,0.0,0.535,169
22711,182242621,663.0,0.0,0.59,169
22786,182842621,600.0,0.0,0.767,169
22883,183618623,776.0,0.0,0.688,169
22953,184178625,560.0,0.0,0.731,169
23048,184938622,759.0,0.0,0.724,169
23132,185610623,672.0,0.0,0.774,169
23220,186314624,704.0,0.0,0.693,169
23316,187082625,768.0,0.0,0.563,169
23394,187706625,624.0,0.0,0.702,169
23488,188458625,752.0,0.0,0.648,169
23581,189202625,744.0,0.0,0.635,169
23669,189906621,703.0,0.0,0.633,169
23757,190610625,704.0,0.0,0.644,169
23771,190722625,112.0,0.0,0.483,189
23866,191482625,760.0,0.0,0.588,169
23962,192250625,768.0,0.0,0.496,185
24040,192874623,623.0,0.0,0.717,169
24135,193634622,759.0,0.0,0.651,169
24220,194314624,680.0,0.0,0.655,169
24319,195106625,792.0,0.0,0.565,169
24395,195714621,607.0,0.0,0.701,169
24502,196570623,856.0,0.0,0.404,185
24567,197090625,520.0,0.0,0.702,169
24658,197818623,727.0,0.0,0.686,169
24749,198546625,728.0,0.0,0.638,169
24836,199242625,696.0,0.0,0.597,169
24928,199978624,735.0,0.0,0.44,185
24995,200514624,536.0,0.0,0.634,169
25082,201210624,696.0,0.0,0.624,169
25171,201922621,711.0,0.0,0.64,169
25262,202650625,728.0,0.0,0.657,169
25284,202826621,175.0,0.0,0.483,189
25379,203586625,760.0,0.0,0.486,185
25465,204274625,688.0,0.0,0.605,169
25563,205058625,784.0,0.0,0.713,169
25661,205842625,784.0,0.0,0.553,169
25748,206538620,695.0,0.0,0.568,169
25835,207234625,696.0,0.0,0.577,169
25940,208074622,839.0,0.0,0.507,169
26030,208794621,719.0,0.0,0.616,185
26041,208882625,88.0,0.0,0.522,189
26133,209618622,735.0,0.0,0.555,169
26236,210442625,824.0,0.0,0.679,169
26342,211290625,848.0,0.0,0.611,169
26431,212002625,712.0,0.0,0.643,169
26474,212346622,343.0,0.0,0.434,185
26549,212946625,600.0,0.0,0.482,185
26638,213658620,711.0,0.0,0.681,169
26741,214482625,824.0,0.0,0.656,169
26825,215154623,671.0,0.0,0.641,169
26924,215946622,791.0,0.0,0.637,169
27019,216706622,760.0,0.0,0.643,169
27099,217346623,640.0,0.0,0.687,169
27210,218234625,888.0,0.0,0.222,185
27323,219138622,903.0,0.0,0.674,169
27425,219954625,816.0,0.0,0.619,169
27522,220730622,775.0,0.0,0.576,169
27630,221594625,864.0,0.0,0.223,185
27748,222538624,943.0,0.0,0.618,169
27838,223258625,720.0,0.0,0.605,169
27945,224114623,855.0,0.0,0.652,169
28042,224890622,775.0,0.0,0.565,185
28057,225010622,120.0,0.0,0.479,189
28158,225818623,808.0,0.0,0.484,185
28233,226418625,600.0,0.0,0.707,169
28340,227274623,855.0,0.0,0.695,169
28451,228162625,888.0,0.0,0.481,185
28519,228706625,544.0,0.0,0.607,169
28610,229434625,728.0,0.0,0.619,169
28698,230138625,704.0,0.0,0.662,169
28794,230906625,768.0,0.0,0.625,169
28888,231658623,751.0,0.0,0.529,185
28974,232346625,688.0,0.0,0.242,185
29079,233186625,840.0,0.0,0.646,169
29167,233890625,704.0,0.0,0.747,169
29287,234850623,959.0,0.0,0.456,185
29375,235554625,704.0,0.0,0.524,169
29478,236378622,823.0,0.0,0.219,185
29598,237338625,960.0,0.0,0.555,169
29700,238154623,815.0,0.0,0.634,169
29792,238890625,736.0,0.0,0.58,169
29894,239706625,816.0,0.0,0.635,185
29907,239810625,104.0,0.0,0.554,173
29997,240530625,720.0,0.0,0.703,169
30101,241362622,831.0,0.0,0.642,169
30207,242210620,847.0,0.0,0.581,169
30300,242954625,744.0,0.0,0.473,185
30392,243690625,736.0,0.0,0.594,169
30486,244442625,752.0,0.0,0.228,185
30594,245306625,864.0,0.0,0.632,169
30693,246098625,792.0,0.0,0.557,169
30793,246898625,800.0,0.0,0.575,169
30901,247762625,864.0,0.0,0.532,185
30909,247826622,63.0,0.0,0.455,189
31009,248626620,799.0,0.0,0.637,169
31114,249466621,840.0,0.0,0.593,169
31204,250186625,720.0,0.0,0.663,169
31322,251130621,943.0,0.0,0.58,185
31329,251186621,56.0,0.0,0.453,189
31435,252034622,848.0,0.0,0.564,169
31536,252842625,808.0,0.0,0.63,169
31615,253474625,632.0,0.0,0.707,169
31732,254410625,936.0,0.0,0.482,185
31821,255122625,712.0,0.0,0.65,169
31833,255218625,96.0,0.0,0.454,189
31926,255962625,744.0,0.0,0.642,169
32026,256762625,800.0,0.0,0.676,169
32138,257658625,896.0,0.0,0.412,185
32227,258370620,711.0,0.0,0.519,169
32311,259042625,672.0,0.0,0.592,169
32404,259786621,743.0,0.0,0.588,169
32428,259978625,192.0,0.0,0.461,189
32517,260690625,712.0,0.0,0.627,169
32605,261394621,703.0,0.0,0.731,169
32716,262282625,888.0,0.0,0.652,169
32815,263074625,792.0,0.0,0.555,169
32895,263714622,639.0,0.0,0.632,169
33006,264602624,888.0,0.0,0.224,185
33093,265298625,696.0,0.0,0.477,185
33198,266138622,839.0,0.0,0.638,169
33300,266954625,816.0,0.0,0.7,169
33414,267866621,911.0,0.0,0.529,169
33497,268530625,664.0,0.0,0.626,169
33514,268666625,136.0,0.0,0.463,189
33614,269466625,800.0,0.0,0.645,169
33713,270258625,792.0,0.0,0.698,169
33815,271074622,815.0,0.0,0.645,169
33901,271762625,688.0,0.0,0.657,169
34006,272602625,840.0,0.0,0.644,185
34018,272698625,96.0,0.0,0.469,189
34112,273450625,752.0,0.0,0.683,169
34223,274338622,887.0,0.0,0.577,169
34300,274954625,616.0,0.0,0.76,169
34413,275858625,904.0,0.0,0.65,169
34506,276602621,743.0,0.0,0.647,169
34529,276786625,184.0,0.0,0.541,173
34627,277570622,783.0,0.0,0.509,169
34721,278322620,751.0,0.0,0.517,169
34819,279106623,784.0,0.0,0.484,185
34904,279786622,679.0,0.0,0.572,169
34996,280522623,736.0,0.0,0.557,169
35084,281226625,704.0,0.0,0.6,169
35170,281914623,687.0,0.0,0.661,169
35259,282626622,711.0,0.0,0.625,169
35297,282930622,304.0,0.0,0.455,185
35365,283474622,544.0,0.0,0.62,169
35458,284218625,744.0,0.0,0.656,169
35532,284810620,591.0,0.0,0.746,169
35645,285714623,904.0,0.0,0.64,169
35736,286442625,728.0,0.0,0.605,169
35835,287234625,792.0,0.0,0.512,169
35923,287938623,703.0,0.0,0.651,169
36021,288722625,784.0,0.0,0.604,169
36033,288818621,95.0,0.0,0.45,189
36125,289554625,736.0,0.0,0.604,169
36204,290186625,632.0,0.0,0.681,169
36307,291010625,824.0,0.0,0.731,169
36408,291818625,808.0,0.0,0.675,169
36514,292666625,848.0,0.0,0.529,169
36588,293258622,591.0,0.0,0.695,169
36695,294114620,855.0,0.0,0.573,185
36786,294842624,728.0,0.0,0.227,185
36900,295754625,912.0,0.0,0.596,169
36987,296450621,695.0,0.0,0.615,169
37077,297170625,720.0,0.0,0.686,169
37183,298018621,847.0,0.0,0.624,169
37290,298874625,856.0,0.0,0.217,185
37458,300218625,1344.0,0.0,0.221,185
37563,301058621,839.0,0.0,0.716,169
37649,301746625,688.0,0.0,0.74,169
37735,302434620,687.0,0.0,0.731,169
37838,303258623,824.0,0.0,0.635,169
37935,304034623,776.0,0.0,0.542,169
38018,304698623,664.0,0.0,0.634,169
38117,305490625,792.0,0.0,0.46,185
38191,306082622,591.0,0.0,0.611,169
38279,306786622,704.0,0.0,0.658,169
38371,307522625,736.0,0.0,0.627,169
38466,308282621,759.0,0.0,0.234,185
38579,309186625,904.0,0.0,0.52,169
38663,309858625,672.0,0.0,0.7,169
38774,310746621,887.0,0.0,0.538,169
38863,311458625,712.0,0.0,0.684,169
38956,312202622,743.0,0.0,0.617,169
39050,312954622,752.0,0.0,0.635,185
39089,313266625,312.0,0.0,0.471,185
39173,313938625,672.0,0.0,0.585,169
39262,314650623,711.0,0.0,0.713,169
39349,315346625,696.0,0.0,0.709,169
39444,316106621,759.0,0.0,0.645,169
39533,316818625,712.0,0.0,0.701,169
39618,317498625,680.0,0.0,0.569,169
39704,318186625,688.0,0.0,0.671,169
39732,318410625,224.0,0.0,0.495,189
39834,319226625,816.0,0.0,0.578,169
39941,320082625,856.0,0.0,0.556,169
40022,320730624,647.0,0.0,0.759,169
40120,321514625,784.0,0.0,0.686,169
40220,322314622,799.0,0.0,0.681,169
40240,322474625,160.0,0.0,0.53,173
40317,323090625,616.0,0.0,0.456,185
40436,324042623,951.0,0.0,0.448,185
40502,324570621,527.0,0.0,0.637,169
40608,325418625,848.0,0.0,0.533,169
40677,325970622,551.0,0.0,0.665,169
40767,326690622,720.0,0.0,0.653,169
40854,327386620,695.0,0.0,0.651,169
40927,327970625,584.0,0.0,0.744,169
41031,328802625,832.0,0.0,0.625,169
41128,329578625,776.0,0.0,0.583,169
41212,330250625,672.0,0.0,0.664,169
41319,331106625,856.0,0.0,0.585,185
41325,331154622,47.0,0.0,0.462,189
41412,331850621,695.0,0.0,0.558,169
41509,332626623,776.0,0.0,0.637,169
41606,333402624,776.0,0.0,0.608,169
41700,334154625,752.0,0.0,0.655,169
41807,335010625,856.0,0.0,0.501,169
41880,335594625,584.0,0.0,0.664,169
41975,336354622,759.0,0.0,0.675,169
42004,336586625,232.0,0.0,0.456,189
42095,337314622,727.0,0.0,0.535,169
42183,338018624,704.0,0.0,0.517,169
42262,338650622,631.0,0.0,0.566,169
42342,339290621,639.0,0.0,0.641,169
42433,340018621,728.0,0.0,0.586,169
42513,340658625,640.0,0.0,0.677,169
42603,341378625,720.0,0.0,0.671,169
42698,342138625,760.0,0.0,0.608,169
42782,342810625,672.0,0.0,0.615,169
42886,343642625,832.0,0.0,0.477,185
42963,344258625,616.0,0.0,0.659,169
43062,345050625,792.0,0.0,0.413,185
43147,345730623,679.0,0.0,0.442,185
43225,346354620,623.0,0.0,0.562,169
43314,347066623,712.0,0.0,0.505,169
43394,347706622,639.0,0.0,0.528,169
43465,348274623,568.0,0.0,0.743,169
43559,349026625,752.0,0.0,0.651,169
43636,349642622,615.0,0.0,0.736,169
43747,350530622,888.0,0.0,0.48,185
43833,351218625,688.0,0.0,0.463,185
43909,351826625,608.0,0.0,0.571,169
43999,352546621,719.0,0.0,0.548,169
44072,353130625,584.0,0.0,0.653,169
44157,353810625,680.0,0.0,0.634,169
44232,354410622,599.0,0.0,0.681,169
44324,355146625,736.0,0.0,0.65,169
44428,355978622,831.0,0.0,0.527,185
44495,356514625,536.0,0.0,0.678,169
44580,357194625,680.0,0.0,0.672,169
44673,357938625,744.0,0.0,0.584,169
44760,358634625,696.0,0.0,0.597,185
44832,359210625,576.0,0.0,0.661,169
44906,359802625,592.0,0.0,0.66,169
44992,360490625,688.0,0.0,0.671,169
45080,361194625,704.0,0.0,0.605,169
45150,361754622,559.0,0.0,0.739,169
45248,362538625,784.0,0.0,0.501,169
45317,363090625,552.0,0.0,0.708,169
45410,363834622,743.0,0.0,0.58,169
45500,364554621,719.0,0.0,0.568,169
45595,365314625,760.0,0.0,0.575,169
45680,365994625,680.0,0.0,0.575,169
45774,366746625,752.0,0.0,0.215,185
45879,367586625,840.0,0.0,0.588,169
45980,368394625,808.0,0.0,0.652,169
46086,369242625,848.0,0.0,0.501,169
46182,370010624,767.0,0.0,0.567,169
46197,370130625,120.0,0.0,0.435,189
46286,370842625,712.0,0.0,0.468,185
46374,371546623,703.0,0.0,0.599,169
46489,372466624,920.0,0.0,0.538,169
46562,373050623,583.0,0.0,0.767,169
46673,373938623,888.0,0.0,0.584,169
46755,374594623,656.0,0.0,0.729,169
46866,375482625,888.0,0.0,0.226,185
46972,376330625,848.0,0.0,0.628,169
47077,377170623,839.0,0.0,0.547,169
47171,377922620,751.0,0.0,0.509,169
47257,378610625,688.0,0.0,0.544,169
47347,379330625,720.0,0.0,0.687,169
47454,380186622,855.0,0.0,0.226,185
47548,380938625,752.0,0.0,0.553,185
47659,381826625,888.0,0.0,0.489,185
47748,382538620,711.0,0.0,0.592,169
47837,383250625,712.0,0.0,0.664,169
47939,384066625,816.0,0.0,0.62,169
48033,384818621,751.0,0.0,0.623,169
48050,384954625,136.0,0.0,0.483,189
48145,385714623,759.0,0.0,0.499,185
48239,386466625,752.0,0.0,0.614,169
48349,387346624,879.0,0.0,0.529,169
48459,388226625,880.0,0.0,0.522,185
48466,388282625,56.0,0.0,0.466,189
48577,389170625,888.0,0.0,0.585,169
48680,389994625,824.0,0.0,0.51,169
48787,390850625,856.0,0.0,0.531,169
48801,390962623,111.0,0.0,0.445,189
48899,391746625,784.0,0.0,0.531,169
49009,392626623,879.0,0.0,0.446,185
49094,393306623,680.0,0.0,0.507,169
49200,394154625,848.0,0.0,0.568,169
49288,394858625,704.0,0.0,0.689,169
49383,395618623,759.0,0.0,0.652,185
49389,395666623,48.0,0.0,0.442,189
49484,396426625,760.0,0.0,0.686,169
49605,397394625,968.0,0.0,0.564,169
49684,398026622,631.0,0.0,0.648,169
49799,398946625,920.0,0.0,0.51,185
49879,399586625,640.0,0.0,0.636,169
49897,399730625,144.0,0.0,0.53,173
49999,400546622,815.0,0.0,0.752,169
50105,401394625,848.0,0.0,0.605,169
50200,402154620,759.0,0.0,0.608,169
50291,402882621,728.0,0.0,0.631,169
50315,403074622,192.0,0.0,0.478,189
50415,403874625,800.0,0.0,0.573,169
50508,404618621,743.0,0.0,0.639,169
50609,405426622,808.0,0.0,0.471,185
50674,405946625,520.0,0.0,0.743,169
50788,406858625,912.0,0.0,0.565,169
50865,407474625,616.0,0.0,0.713,169
50953,408178625,704.0,0.0,0.703,169
51044,408906625,728.0,0.0,0.707,169
51140,409674621,767.0,0.0,0.67,169
51160,409834625,160.0,0.0,0.514,173
51241,410482625,648.0,0.0,0.683,169
51329,411186625,704.0,0.0,0.707,169
51422,411930621,743.0,0.0,0.701,169
51526,412762625,832.0,0.0,0.664,169
51631,413602625,840.0,0.0,0.495,185
51710,414234621,631.0,0.0,0.629,169
51814,415066625,832.0,0.0,0.568,185
51895,415714625,648.0,0.0,0.646,169
51986,416442623,727.0,0.0,0.629,185
52005,416594625,152.0,0.0,0.498,189
52086,417242622,647.0,0.0,0.637,169
52182,418010621,767.0,0.0,0.602,169
52274,418746620,735.0,0.0,0.579,169
52368,419498625,752.0,0.0,0.606,169
52461,420242625,744.0,0.0,0.522,169
52537,420850622,607.0,0.0,0.707,169
52630,421594622,744.0,0.0,0.726,169
52726,422362623,768.0,0.0,0.675,169
52825,423154621,791.0,0.0,0.625,185
52855,423394621,240.0,0.0,0.529,173
52936,424042625,648.0,0.0,0.591,169
53032,424810625,768.0,0.0,0.602,169
53135,425634625,824.0,0.0,0.484,185
53222,426330620,695.0,0.0,0.571,169
53308,427018625,688.0,0.0,0.572,169
53405,427794622,775.0,0.0,0.543,169
53492,428490624,696.0,0.0,0.693,169
53512,428650623,159.0,0.0,0.566,189
53606,429402622,751.0,0.0,0.642,169
53718,430298623,896.0,0.0,0.457,185
53813,431058623,760.0,0.0,0.533,169
53900,431754625,696.0,0.0,0.602,169
53991,432482622,727.0,0.0,0.661,169
54015,432674622,192.0,0.0,0.464,189
54104,433386622,712.0,0.0,0.51,169
54198,434138623,752.0,0.0,0.563,169
54284,434826625,688.0,0.0,0.668,169
54377,435570625,744.0,0.0,0.55,169
54459,436226623,655.0,0.0,0.67,169
54565,437074623,848.0,0.0,0.476,185
54646,437722623,648.0,0.0,0.66,169
54741,438482621,759.0,0.0,0.578,169
54832,439210621,728.0,0.0,0.638,169
54924,439946622,736.0,0.0,0.637,185
54945,440114625,168.0,0.0,0.509,173
55029,440786625,672.0,0.0,0.656,169
55136,441642625,856.0,0.0,0.47,185
55210,442234621,591.0,0.0,0.656,169
55309,443026625,792.0,0.0,0.593,169
55385,443634625,608.0,0.0,0.766,169
55479,444386625,752.0,0.0,0.745,169
55584,445226625,840.0,0.0,0.543,169
55684,446026623,799.0,0.0,0.505,185
55767,446690625,664.0,0.0,0.633,185
55776,446762623,71.0,0.0,0.503,189
55883,447618625,856.0,0.0,0.542,169
55970,448314621,695.0,0.0,0.579,169
56048,448938625,624.0,0.0,0.69,169
56137,449650624,711.0,0.0,0.71,169
56245,450514621,863.0,0.0,0.527,169
56320,451114621,600.0,0.0,0.72,169
56420,451914625,800.0,0.0,0.671,169
56526,452762625,848.0,0.0,0.206,185
56634,453626625,864.0,0.0,0.562,169
56726,454362622,735.0,0.0,0.579,169
56830,455194625,832.0,0.0,0.495,185
56924,455946625,752.0,0.0,0.52,169
57010,456634621,687.0,0.0,0.689,169
57114,457466627,832.0,0.0,0.209,185
57221,458322623,855.0,0.0,0.601,169
57318,459098625,776.0,0.0,0.6,169
57417,459890625,792.0,0.0,0.533,169
57487,460450625,560.0,0.0,0.691,169
57607,461410625,960.0,0.0,0.542,169
57702,462170621,759.0,0.0,0.226,185
57792,462890625,720.0,0.0,0.495,185
57880,463594625,704.0,0.0,0.568,169
57979,464386622,791.0,0.0,0.637,169
58074,465146622,760.0,0.0,0.636,169
58164,465866625,720.0,0.0,0.696,169
58264,466666620,799.0,0.0,0.552,169
58350,467354625,688.0,0.0,0.569,169
58436,468042622,687.0,0.0,0.681,169
58472,468330625,288.0,0.0,0.477,189
58626,469562624,1231.0,0.0,0.233,185
58737,470450622,887.0,0.0,0.611,169
58829,471186625,736.0,0.0,0.646,169
58923,471938622,751.0,0.0,0.708,169
59022,472730625,792.0,0.0,0.57,169
59111,473442625,712.0,0.0,0.589,169
59205,474194624,751.0,0.0,0.672,169
59217,474290625,96.0,0.0,0.466,189
59322,475130621,839.0,0.0,0.492,185
59399,475746622,616.0,0.0,0.587,169
59482,476410623,664.0,0.0,0.717,169
59576,477162624,752.0,0.0,0.762,169
59688,478058625,896.0,0.0,0.473,185
59767,478690622,631.0,0.0,0.631,169
59862,479450621,759.0,0.0,0.674,169
59968,480298625,848.0,0.0,0.564,185
59973,480338625,40.0,0.0,0.453,189
60065,481074625,736.0,0.0,0.611,169
60162,481850625,776.0,0.0,0.539,169
60253,482578625,728.0,0.0,0.649,169
60350,483354625,776.0,0.0,0.635,169
60448,484138625,784.0,0.0,0.577,169
60529,484786622,647.0,0.0,0.655,169
60632,485610621,823.0,0.0,0.592,169
60645,485714625,104.0,0.0,0.441,189
60746,486522624,807.0,0.0,0.552,169
60842,487290625,768.0,0.0,0.594,169
60934,488026622,735.0,0.0,0.62,169
61027,488770625,744.0,0.0,0.62,169
61114,489466622,695.0,0.0,0.69,169
61220,490314622,848.0,0.0,0.626,169
61233,490418625,104.0,0.0,0.447,189
61330,491194623,775.0,0.0,0.513,169
61421,491922623,728.0,0.0,0.591,169
61517,492690625,768.0,0.0,0.653,169
61604,493386624,695.0,0.0,0.731,169
61707,494210625,824.0,0.0,0.516,169
61791,494882622,671.0,0.0,0.624,169
61879,495586621,703.0,0.0,0.654,169
61973,496338622,752.0,0.0,0.682,169
61989,496466625,128.0,0.0,0.451,189
62080,497194623,727.0,0.0,0.597,169
62168,497898625,704.0,0.0,0.627,185
62253,498578623,679.0,0.0,0.79,169
62354,499386625,808.0,0.0,0.734,169
62466,500282625,896.0,0.0,0.501,169
62543,500898622,615.0,0.0,0.662,169
62637,501650624,752.0,0.0,0.655,169
62665,501874625,224.0,0.0,0.445,189
62748,502538625,664.0,0.0,0.61,169
62845,503314625,776.0,0.0,0.689,169
62947,504130622,815.0,0.0,0.607,169
63037,504850625,720.0,0.0,0.564,169
63121,505522625,672.0,0.0,0.601,169
63214,506266625,744.0,0.0,0.645,169
63308,507018623,751.0,0.0,0.632,169
63405,507794625,776.0,0.0,0.616,169
63417,507890621,95.0,0.0,0.447,189
63508,508618625,728.0,0.0,0.534,169
63606,509402622,783.0,0.0,0.61,169
63708,510218620,815.0,0.0,0.603,169
63803,510978623,760.0,0.0,0.597,169
63895,511714625,736.0,0.0,0.606,169
64002,512570622,855.0,0.0,0.234,185
64104,513386620,815.0,0.0,0.605,169
64196,514122624,736.0,0.0,0.637,169
64287,514850625,728.0,0.0,0.629,169
64384,515626623,775.0,0.0,0.69,169
64476,516362625,736.0,0.0,0.659,169
64584,517226625,864.0,0.0,0.441,185
64650,517754623,527.0,0.0,0.652,169
64748,518538623,784.0,0.0,0.657,169
64765,518674625,136.0,0.0,0.518,189
64850,519354625,680.0,0.0,0.538,185
65004,520586625,1232.0,0.0,0.652,185
65090,521274625,688.0,0.0,0.61,185
65178,521978625,704.0,0.0,0.216,185
65346,523322622,1343.0,0.0,0.261,185
65438,524058625,736.0,0.0,0.536,185
65530,524794625,736.0,0.0,0.656,169
65620,525514624,719.0,0.0,0.74,169
65719,526306625,792.0,0.0,0.757,169
65818,527098625,792.0,0.0,0.701,169
65919,527906625,808.0,0.0,0.641,169
66010,528634622,727.0,0.0,0.643,185
66025,528754625,120.0,0.0,0.508,189
66120,529514625,760.0,0.0,0.607,169
66217,530290625,776.0,0.0,0.639,169
66309,531026625,736.0,0.0,0.674,169
66404,531786625,760.0,0.0,0.595,169
66505,532594625,808.0,0.0,0.536,169
66590,533274625,680.0,0.0,0.666,169
66616,533482621,207.0,0.0,0.459,189
66708,534218625,736.0,0.0,0.58,169
66785,534834624,615.0,0.0,0.665,169
66876,535562625,728.0,0.0,0.715,169
66966,536282625,720.0,0.0,0.654,169
67050,536954621,671.0,0.0,0.715,169
67142,537690625,736.0,0.0,0.654,169
67234,538426625,736.0,0.0,0.726,169
67333,539218622,791.0,0.0,0.63,169
67424,539946622,728.0,0.0,0.675,169
67523,540738624,792.0,0.0,0.651,185
67533,540818625,80.0,0.0,0.44,189
67624,541546625,728.0,0.0,0.718,169
67724,542346625,800.0,0.0,0.754,169
67840,543274625,928.0,0.0,0.502,169
67927,543970621,695.0,0.0,0.671,169
68012,544650625,680.0,0.0,0.683,169
68055,544994625,344.0,0.0,0.423,185
68126,545562623,567.0,0.0,0.656,169
68228,546378625,816.0,0.0,0.623,169
68347,547330625,952.0,0.0,0.435,185
68442,548090625,760.0,0.0,0.508,169
68522,548730621,639.0,0.0,0.645,169
68554,548986625,256.0,0.0,0.465,189
68651,549762625,776.0,0.0,0.536,169
68746,550522623,759.0,0.0,0.598,169
68842,551290620,767.0,0.0,0.547,169
68935,552034625,744.0,0.0,0.523,169
69028,552778625,744.0,0.0,0.671,169
69045,552914620,135.0,0.0,0.443,189
69141,553682622,768.0,0.0,0.61,169
69232,554410621,727.0,0.0,0.62,169
69350,555354621,944.0,0.0,0.497,185
69452,556170625,816.0,0.0,0.604,169
69465,556274623,103.0,0.0,0.456,189
69574,557146625,872.0,0.0,0.621,169
69691,558082621,935.0,0.0,0.519,169
69798,558938624,856.0,0.0,0.204,185
69889,559666625,728.0,0.0,0.687,169
70012,560650625,984.0,0.0,0.654,169
70108,561418622,767.0,0.0,0.635,169
70199,562146621,727.0,0.0,0.658,169
70224,562346625,200.0,0.0,0.443,189
70327,563170625,824.0,0.0,0.6,169
70430,563994624,823.0,0.0,0.554,169
70509,564626625,632.0,0.0,0.722,169
70638,565658625,1032.0,0.0,0.21,185
70756,566602625,944.0,0.0,0.554,169
70859,567426622,823.0,0.0,0.423,185
70959,568226623,800.0,0.0,0.474,185
71044,568906625,680.0,0.0,0.661,169
71141,569682625,776.0,0.0,0.57,185
71164,569866623,183.0,0.0,0.482,189
71258,570618625,752.0,0.0,0.481,185
71340,571274624,655.0,0.0,0.631,169
71440,572074623,799.0,0.0,0.503,169
71516,572682625,608.0,0.0,0.699,169
71630,573594625,912.0,0.0,0.595,169
71730,574394625,800.0,0.0,0.216,185
71851,575362625,968.0,0.0,0.551,169
71950,576154620,791.0,0.0,0.521,169
72050,576954622,800.0,0.0,0.555,169
72150,577754625,800.0,0.0,0.217,185
72263,578658625,904.0,0.0,0.601,169
72366,579482625,824.0,0.0,0.517,169
72462,580250622,767.0,0.0,0.653,169
72564,581066624,816.0,0.0,0.599,185
72645,581714625,648.0,0.0,0.624,169
72671,581922625,208.0,0.0,0.457,189
72822,583130625,1208.0,0.0,0.228,185
72923,583938625,808.0,0.0,0.714,169
73010,584634625,696.0,0.0,0.734,169
73120,585514625,880.0,0.0,0.535,169
73213,586258625,744.0,0.0,0.507,169
73302,586970625,712.0,0.0,0.527,169
73397,587730625,760.0,0.0,0.596,169
73494,588506625,776.0,0.0,0.227,185
73603,589378621,871.0,0.0,0.55,169
73691,590082623,704.0,0.0,0.692,169
73797,590930625,848.0,0.0,0.526,169
73879,591586625,656.0,0.0,0.658,169
73975,592354625,768.0,0.0,0.57,169
74076,593162621,807.0,0.0,0.574,185
74166,593882624,720.0,0.0,0.239,185
74269,594706621,823.0,0.0,0.643,169
74372,595530625,824.0,0.0,0.534,169
74463,596258621,727.0,0.0,0.524,169
74554,596986624,728.0,0.0,0.604,169
74647,597730625,744.0,0.0,0.566,169
74739,598466622,735.0,0.0,0.52,169
74828,599178620,711.0,0.0,0.491,185
74910,599834622,656.0,0.0,0.605,169
75006,600602625,768.0,0.0,0.224,185
75094,601306622,703.0,0.0,0.486,185
75188,602058622,752.0,0.0,0.63,169
75265,602674625,616.0,0.0,0.53,185
75384,603626625,952.0,0.0,0.606,169
75471,604322625,696.0,0.0,0.481,185
75553,604978625,656.0,0.0,0.75,169
75655,605794621,815.0,0.0,0.72,169
75744,606506621,712.0,0.0,0.694,169
75785,606834623,328.0,0.0,0.497,185
75863,607458621,623.0,0.0,0.495,185
75963,608258625,800.0,0.0,0.469,185
76032,608810622,551.0,0.0,0.628,169
76126,609562622,752.0,0.0,0.598,169
76188,610058622,496.0,0.0,0.721,169
76283,610818621,759.0,0.0,0.766,169
76394,611706625,888.0,0.0,0.606,169
76479,612386621,679.0,0.0,0.609,169
76564,613066625,680.0,0.0,0.71,169
76658,613818622,751.0,0.0,0.656,169
76754,614586624,768.0,0.0,0.665,169
76841,615282621,695.0,0.0,0.632,169
76866,615482625,200.0,0.0,0.446,189
76962,616250625,768.0,0.0,0.628,169
77059,617026621,775.0,0.0,0.585,169
77152,617770625,744.0,0.0,0.558,169
77234,618426621,655.0,0.0,0.6,169
77330,619194625,768.0,0.0,0.612,169
77421,619922624,727.0,0.0,0.596,169
77501,620562622,639.0,0.0,0.659,169
77529,620786622,224.0,0.0,0.458,189
77694,622106625,1320.0,0.0,0.22,185
77806,623002620,895.0,0.0,0.57,169
77901,623762625,760.0,0.0,0.58,169
77997,624530622,767.0,0.0,0.615,169
78095,625314622,784.0,0.0,0.52,169
78179,625986625,672.0,0.0,0.669,169
78202,626170625,184.0,0.0,0.463,189
78306,627002625,832.0,0.0,0.606,169
78420,627914625,912.0,0.0,0.512,169
78502,628570625,656.0,0.0,0.678,169
78618,629498622,927.0,0.0,0.21,185
78736,630442623,944.0,0.0,0.657,169
78818,631098625,656.0,0.0,0.759,169
78938,632058625,960.0,0.0,0.522,169
79038,632858625,800.0,0.0,0.228,185
79134,633626625,768.0,0.0,0.583,185
79222,634330621,703.0,0.0,0.551,169
79307,635010625,680.0,0.0,0.647,169
79401,635762625,752.0,0.0,0.626,169
79494,636506625,744.0,0.0,0.648,169
79595,637314625,808.0,0.0,0.557,169
79682,638010625,696.0,0.0,0.456,185
79780,638794625,784.0,0.0,0.545,169
79872,639530625,736.0,0.0,0.5,185
79949,640146623,615.0,0.0,0.642,169
79968,640298625,152.0,0.0,0.491,189
80053,640978621,679.0,0.0,0.593,169
80145,641714625,736.0,0.0,0.677,169
80253,642578623,863.0,0.0,0.562,169
80316,643082620,503.0,0.0,0.73,169
80441,644082625,1000.0,0.0,0.554,169
80532,644810620,727.0,0.0,0.583,169
80620,645514621,704.0,0.0,0.559,169
80710,646234622,720.0,0.0,0.543,185
80802,646970624,736.0,0.0,0.227,185
80909,647826625,856.0,0.0,0.622,169
81012,648650625,824.0,0.0,0.589,169
81104,649386625,736.0,0.0,0.534,169
81203,650178625,792.0,0.0,0.537,169
81298,650938625,760.0,0.0,0.58,185
81387,651650625,712.0,0.0,0.632,185
81402,651770625,120.0,0.0,0.544,173
81487,652450623,679.0,0.0,0.589,169
81586,653242621,791.0,0.0,0.674,169
81680,653994625,752.0,0.0,0.635,169
81774,654746625,752.0,0.0,0.554,169
81862,655450620,703.0,0.0,0.501,169
81954,656186622,736.0,0.0,0.547,169
82046,656922625,736.0,0.0,0.576,169
82146,657722625,800.0,0.0,0.229,185
82253,658578625,856.0,0.0,0.597,169
82339,659266621,687.0,0.0,0.658,169
82445,660114622,848.0,0.0,0.604,169
82527,660770625,656.0,0.0,0.687,169
82631,661602625,832.0,0.0,0.521,169
82723,662338621,735.0,0.0,0.584,169
82818,663098622,760.0,0.0,0.223,185
82979,664386625,1288.0,0.0,0.485,185
83043,664898625,512.0,0.0,0.662,169
83137,665650625,752.0,0.0,0.642,169
83230,666394625,744.0,0.0,0.628,185
83318,667098623,703.0,0.0,0.637,185
83332,667210625,112.0,0.0,0.568,189
83422,667930623,719.0,0.0,0.574,169
83512,668650625,720.0,0.0,0.644,169
83611,669442625,792.0,0.0,0.634,169
83717,670290625,848.0,0.0,0.518,169
83818,671098625,808.0,0.0,0.491,185
83905,671794625,696.0,0.0,0.489,185
83988,672458625,664.0,0.0,0.656,185
84014,672666625,208.0,0.0,0.523,173
84112,673450623,783.0,0.0,0.637,169
84218,674298623,848.0,0.0,0.581,169
84297,674930625,632.0,0.0,0.624,169
84395,675714621,783.0,0.0,0.664,169
84498,676538625,824.0,0.0,0.236,185
84607,677410620,871.0,0.0,0.526,169
84685,678034625,624.0,0.0,0.62,169
84785,678834621,799.0,0.0,0.691,169
84882,679610625,776.0,0.0,0.612,169
84983,680418625,808.0,0.0,0.508,169
85078,681178621,759.0,0.0,0.508,185
85089,681266625,88.0,0.0,0.437,189
85188,682058622,791.0,0.0,0.617,169
85292,682890625,832.0,0.0,0.632,169
85405,683794622,903.0,0.0,0.484,185
85491,684482624,688.0,0.0,0.5,169
85590,685274625,792.0,0.0,0.219,185
85694,686106622,831.0,0.0,0.572,169
85790,686874622,768.0,0.0,0.521,169
85869,687506625,632.0,0.0,0.569,169
85956,688202625,696.0,0.0,0.686,169
86046,688922625,720.0,0.0,0.683,169
86142,689690623,767.0,0.0,0.68,169
86251,690562620,871.0,0.0,0.572,169
86265,690674625,112.0,0.0,0.441,189
86352,691370625,696.0,0.0,0.58,169
86451,692162624,791.0,0.0,0.613,169
86556,693002622,839.0,0.0,0.644,169
86660,693834623,832.0,0.0,0.564,169
86754,694586622,751.0,0.0,0.488,185
86850,695354623,768.0,0.0,0.225,185
86968,696298625,944.0,0.0,0.628,169
87053,696978625,680.0,0.0,0.741,169
87162,697850622,871.0,0.0,0.546,169
87270,698714622,864.0,0.0,0.222,185
87369,699506622,792.0,0.0,0.572,169
87457,700210625,704.0,0.0,0.582,169
87554,700986624,775.0,0.0,0.673,169
87657,701810625,824.0,0.0,0.625,169
87753,702578625,768.0,0.0,0.57,169
87855,703394622,815.0,0.0,0.538,185
87861,703442625,48.0,0.0,0.445,189
87968,704298621,855.0,0.0,0.613,169
88087,705250625,952.0,0.0,0.479,185
88190,706074625,824.0,0.0,0.504,185
88197,706130622,55.0,0.0,0.442,189
88312,707050625,920.0,0.0,0.529,169
88405,707794625,744.0,0.0,0.52,169
88489,708466623,671.0,0.0,0.601,169
88590,709274621,807.0,0.0,0.574,169
88687,710050625,776.0,0.0,0.572,169
88782,710810625,760.0,0.0,0.226,185
88887,711650622,839.0,0.0,0.703,169
88988,712458621,807.0,0.0,0.562,169
89095,713314624,856.0,0.0,0.488,185
89196,714122625,808.0,0.0,0.585,185
89205,714194625,72.0,0.0,0.464,189
89310,715034622,839.0,0.0,0.525,169
89400,715754622,720.0,0.0,0.58,169
89495,716514624,760.0,0.0,0.679,169
89599,717346623,831.0,0.0,0.567,169
89698,718138625,792.0,0.0,0.511,185
89790,718874623,735.0,0.0,0.216,185
89914,719866623,992.0,0.0,0.562,169
90010,720634622,767.0,0.0,0.584,169
90107,721410625,776.0,0.0,0.521,169
90210,722234623,823.0,0.0,0.226,185
90316,723082623,848.0,0.0,0.66,169
90413,723858625,776.0,0.0,0.603,169
90509,724626625,768.0,0.0,0.663,169
90612,725450625,824.0,0.0,0.519,169
90706,726202625,752.0,0.0,0.498,185
90789,726866623,663.0,0.0,0.627,169
90882,727610623,744.0,0.0,0.236,185
90977,728370625,760.0,0.0,0.658,169
91083,729218623,847.0,0.0,0.525,169
91179,729986625,768.0,0.0,0.571,169
91264,730666621,679.0,0.0,0.619,169
91364,731466622,800.0,0.0,0.532,169
91461,732242625,776.0,0.0,0.587,169
91554,732986625,744.0,0.0,0.219,185
91656,733802625,816.0,0.0,0.655,169
91755,734594623,791.0,0.0,0.585,169
91859,735426625,832.0,0.0,0.629,169
91954,736186625,760.0,0.0,0.555,169
92051,736962623,775.0,0.0,0.523,185
92129,737586623,624.0,0.0,0.563,169
92225,738354625,768.0,0.0,0.583,185
92308,739018625,664.0,0.0,0.766,185
92548,740938622,0.0,0.0,0.833,75
92642,741690623,752.0,79.8,0.874,73
92729,742386625,696.0,82.9,0.829,73
92826,743162625,776.0,79.8,0.865,73
92921,743922625,760.0,79.4,0.869,73
93019,744706625,784.0,78.9,0.843,73
93114,745466621,759.0,78.9,0.848,73
93215,746274625,808.0,78.9,0.86,73
93313,747058620,783.0,78.1,0.842,73
93411,747842625,784.0,77.3,0.837,73
93501,748562621,719.0,77.3,0.831,73
93601,749362623,800.0,76.5,0.87,73
93698,750138624,776.0,76.5,0.855,73
93800,750954621,815.0,76.5,0.848,73
93890,751674623,720.0,76.5,0.82,73
93991,752482625,808.0,76.5,0.876,73
94085,753234621,751.0,76.5,0.856,73
94176,753962622,728.0,77.3,0.839,73
94271,754722621,759.0,78.9,0.862,73
94368,755498625,776.0,77.3,0.882,73
94468,756298625,800.0,77.3,0.86,73
94561,757042623,743.0,78.9,0.83,73
94658,757818621,775.0,78.9,0.856,73
94755,758594625,776.0,77.3,0.852,73
94850,759354625,760.0,78.9,0.832,73
94944,760106621,751.0,78.9,0.848,73
95050,760954621,848.0,77.3,0.857,73
95152,761770625,816.0,77.3,0.838,73
95259,762626625,856.0,77.3,0.826,73
95355,763394625,768.0,77.3,0.796,73
95453,764178622,783.0,77.3,0.85,73
95552,764970621,791.0,76.5,0.842,73
95655,765794625,824.0,75.8,0.839,73
95756,766602625,808.0,74.3,0.797,73
95846,767322621,719.0,74.3,0.821,73
95944,768106625,784.0,75.8,0.873,73
96040,768874621,767.0,76.5,0.88,73
96134,769626620,751.0,76.5,0.855,73
96223,770338624,712.0,76.5,0.836,73
96316,771082625,744.0,78.1,0.863,73
96414,771866625,784.0,78.1,0.862,73
96513,772658625,792.0,78.1,0.851,73
96602,773370625,712.0,79.8,0.817,73
96702,774170625,800.0,78.1,0.874,73
96801,774962625,792.0,78.1,0.856,73
96898,775738622,775.0,77.3,0.856,73
96987,776450625,712.0,77.3,0.826,73
97091,777282624,831.0,76.5,0.88,73
97188,778058624,776.0,76.5,0.857,73
97274,778746625,688.0,77.3,0.833,73
97375,779554625,808.0,77.3,0.862,73
97471,780322625,768.0,77.3,0.852,73
97567,781090625,768.0,77.3,0.854,73
97663,781858625,768.0,78.1,0.84,73
97767,782690625,832.0,78.1,0.867,73
97872,783530625,840.0,77.3,0.839,73
97981,784402621,871.0,77.3,0.817,73
98086,785242620,839.0,74.3,0.81,73
98191,786082625,840.0,72.1,0.823,73
98291,786882625,800.0,72.1,0.825,73
98379,787586625,704.0,72.1,0.844,73
98476,788362622,775.0,72.1,0.89,73
98574,789146625,784.0,72.1,0.872,73
98665,789874624,727.0,75.0,0.827,73
98757,790610625,736.0,76.5,0.829,73
98852,791370625,760.0,77.3,0.835,73
98950,792154625,784.0,77.3,0.847,73
99046,792922621,767.0,78.1,0.808,73
99140,793674624,752.0,78.9,0.82,73
99241,794482621,807.0,78.1,0.848,73
99343,795298621,816.0,78.1,0.864,73
99439,796066625,768.0,78.1,0.838,73
99543,796898625,832.0,78.1,0.872,73
99646,797722625,824.0,76.5,0.858,73
99745,798514625,792.0,75.8,0.827,73
99848,799338621,823.0,74.3,0.842,73
99951,800162625,824.0,73.5,0.851,73
100047,800930625,768.0,73.5,0.84,73
100144,801706620,775.0,73.5,0.857,73
100241,802482625,776.0,75.8,0.873,73
100339,803266621,783.0,75.8,0.867,73
100430,803994625,728.0,76.5,0.821,73
100515,804674625,680.0,77.3,0.805,73
100608,805418623,743.0,77.3,0.84,73
100701,806162621,743.0,78.1,0.836,73
100795,806914621,752.0,79.8,0.823,73
100884,807626624,712.0,79.8,0.516,185
100984,808426625,800.0,79.8,0.833,169
101082,809210620,783.0,79.8,0.841,169
101175,809954625,744.0,79.8,0.816,169
101270,810714625,760.0,79.8,0.842,169
101368,811498620,783.0,79.8,0.849,169
101464,812266622,768.0,79.8,0.85,73
101560,813034625,768.0,79.8,0.851,73
101657,813810623,775.0,79.8,0.853,73
101748,814538623,728.0,80.6,0.82,73
101840,815274625,736.0,80.6,0.858,73
101934,816026625,752.0,79.8,0.877,73
102026,816762625,736.0,79.8,0.863,73
102111,817442623,679.0,79.8,0.825,73
102200,818154625,712.0,81.5,0.852,73
102290,818874620,719.0,81.5,0.858,73
102381,819602620,728.0,82.4,0.869,73
102469,820306625,704.0,82.4,0.829,73
102567,821090625,784.0,82.4,0.869,73
102663,821858625,768.0,82.4,0.858,73
102758,822618625,760.0,82.4,0.851,73
102845,823314625,696.0,83.3,0.814,73
102945,824114625,800.0,82.4,0.867,73
103045,824914625,800.0,78.9,0.847,73
103141,825682621,767.0,78.1,0.846,73
103227,826370625,688.0,78.1,0.799,73
103316,827082625,712.0,78.1,0.866,73
103398,827738625,656.0,78.9,0.846,73
103521,828722625,984.0,78.9,0.482,185
103636,829642621,919.0,78.9,0.778,169
103714,830266623,624.0,78.9,0.828,169
103793,830898625,632.0,78.9,0.886,169
103878,831578623,679.0,78.9,0.896,169
103965,832274625,696.0,78.9,0.894,169
104053,832978621,703.0,80.1,0.869,73
104135,833634621,656.0,84.3,0.834,73
104222,834330623,696.0,84.3,0.853,73
104318,835098625,768.0,84.3,0.857,73
104414,835866625,768.0,84.3,0.853,73
104509,836626625,760.0,84.3,0.83,73
104600,837354624,727.0,82.4,0.831,73
104697,838130622,775.0,80.1,0.837,73
104791,838882621,751.0,79.8,0.836,73
104887,839650625,768.0,78.9,0.843,73
104987,840450625,800.0,78.1,0.831,73
105085,841234621,783.0,78.1,0.821,73
105189,842066625,832.0,78.1,0.808,73
105284,842826625,760.0,78.1,0.799,73
105381,843602625,776.0,77.3,0.836,73
105474,844346625,744.0,77.3,0.839,73
105569,845106625,760.0,78.1,0.859,73
105657,845810625,704.0,78.1,0.864,73
105749,846546622,735.0,78.9,0.88,73
105845,847314625,768.0,78.9,0.882,73
105941,848082621,767.0,78.9,0.858,73
106035,848834622,752.0,78.9,0.845,73
106125,849554625,720.0,79.8,0.854,73
106220,850314625,760.0,79.8,0.882,73
106319,851106624,791.0,78.9,0.877,73
106412,851850625,744.0,79.8,0.849,73
106503,852578625,728.0,79.8,0.847,73
106597,853330625,752.0,79.8,0.867,73
106693,854098625,768.0,79.8,0.885,73
106791,854882625,784.0,79.8,0.865,73
106888,855658625,776.0,78.9,0.83,73
106978,856378625,720.0,78.9,0.831,73
107079,857186625,808.0,78.1,0.872,73
107175,857954621,767.0,78.1,0.864,73
107268,858698625,744.0,78.1,0.863,73
107360,859434628,736.0,78.1,0.871,73
107454,860186620,751.0,78.1,0.873,73
107552,860970625,784.0,78.1,0.857,73
107644,861706625,736.0,79.8,0.847,73
107743,862498625,792.0,79.8,0.875,73
107840,863274620,775.0,78.1,0.856,73
107938,864058625,784.0,78.1,0.847,73
108034,864826621,767.0,78.1,0.854,73
108135,865634625,808.0,77.3,0.857,73
108235,866434625,800.0,76.5,0.848,73
108332,867210625,776.0,76.5,0.842,73
108427,867970625,760.0,77.3,0.855,73
108524,868746625,776.0,77.3,0.862,73
108622,869530625,784.0,77.3,0.872,73
108716,870282624,751.0,77.3,0.852,73
108810,871034625,752.0,77.3,0.841,73
108904,871786625,752.0,77.3,0.858,73
108993,872498625,712.0,78.9,0.862,73
109085,873234625,736.0,79.8,0.875,73
109177,873970625,736.0,79.8,0.858,73
109263,874658625,688.0,79.8,0.816,73
109392,875690621,1031.0,79.8,0.477,185
109482,876410622,720.0,79.8,0.482,185
109568,877098620,687.0,79.8,0.512,169
109696,878122625,1024.0,79.8,0.773,169
109747,878530625,408.0,79.8,0.495,185
109885,879634625,1104.0,79.8,0.772,169
109931,880002620,367.0,79.8,0.485,185
110068,881098625,1096.0,79.8,0.74,169
110116,881482625,384.0,79.8,0.465,185
110174,881946625,464.0,79.8,0.527,185
110317,883090625,1144.0,79.8,0.441,185
110371,883522620,431.0,79.8,0.837,169
110462,884250625,728.0,79.8,0.796,73
110561,885042621,791.0,79.8,0.863,73
110659,885826625,784.0,79.8,0.84,73
110758,886618625,792.0,79.8,0.853,73
110846,887322624,703.0,81.5,0.85,73
110946,888122625,800.0,76.5,0.868,73
111039,888866625,744.0,76.5,0.845,73
111126,889562621,695.0,76.5,0.847,73
111218,890298620,735.0,76.5,0.856,73
111314,891066624,768.0,78.1,0.871,73
111402,891770625,704.0,80.6,0.826,73
111503,892578623,807.0,80.6,0.872,73
111607,893410625,832.0,80.6,0.871,73
111716,894282621,871.0,78.1,0.854,73
111822,895130624,848.0,78.1,0.795,73
111926,895962625,832.0,74.3,0.805,73
112029,896786621,823.0,72.8,0.805,73
112121,897522625,736.0,72.8,0.827,73
112225,898354625,832.0,72.1,0.848,73
112326,899162625,808.0,72.1,0.853,73
112429,899986625,824.0,72.1,0.857,73
112524,900746620,759.0,72.8,0.809,73
112622,901530623,784.0,72.8,0.867,73
112724,902346625,816.0,73.5,0.869,73
112830,903194625,848.0,73.5,0.871,73
112939,904066622,871.0,73.5,0.858,73
113042,904890625,824.0,72.8,0.848,73
113153,905778620,887.0,72.8,0.864,73
113263,906658622,880.0,72.8,0.851,73
113365,907474623,816.0,72.8,0.836,73
113467,908290621,815.0,72.8,0.839,73
113572,909130625,840.0,71.4,0.87,73
113677,909970625,840.0,71.4,0.86,73
113775,910754622,783.0,71.4,0.827,73
113882,911610622,856.0,71.4,0.867,73
113991,912482625,872.0,71.4,0.867,73
114105,913394625,912.0,71.4,0.856,73
114212,914250623,855.0,71.4,0.829,73
114319,915106624,856.0,70.1,0.859,73
114430,915994624,888.0,70.1,0.872,73
114542,916890625,896.0,70.1,0.855,73
114649,917746625,856.0,70.1,0.836,73
114752,918570625,824.0,70.1,0.85,73
114861,919442625,872.0,68.8,0.862,73
114968,920298625,856.0,70.1,0.872,73
115069,921106625,808.0,70.1,0.836,73
115172,921930625,824.0,70.1,0.86,73
115277,922770625,840.0,70.1,0.867,73
115381,923602625,832.0,71.4,0.86,73
115476,924362625,760.0,72.1,0.836,73
115583,925218625,856.0,72.1,0.878,73
115690,926074625,856.0,71.4,0.88,73
115787,926850625,776.0,72.1,0.84,73
115876,927562622,711.0,72.8,0.787,73
116043,928898625,1336.0,72.8,0.754,169
116128,929578625,680.0,72.8,0.84,169
116236,930442624,863.0,72.8,0.842,169
116292,930890625,448.0,72.8,0.517,169
116461,932242625,1352.0,72.8,0.338,185
116577,933170625,928.0,72.8,0.833,169
116681,934002625,832.0,72.8,0.854,73
116787,934850621,847.0,72.1,0.865,73
116887,935650625,800.0,74.5,0.837,73
116993,936498625,848.0,74.5,0.864,73
117098,937338625,840.0,71.4,0.848,73
117201,938162625,824.0,72.8,0.864,73
117297,938930624,767.0,74.5,0.836,73
117401,939762625,832.0,72.8,0.871,73
117502,940570625,808.0,72.8,0.863,73
117601,941362625,792.0,72.8,0.863,73
117706,942202625,840.0,72.8,0.87,73
117810,943034623,831.0,72.1,0.85,73
117905,943794625,760.0,72.8,0.848,73
118011,944642625,848.0,72.8,0.872,73
118115,945474624,831.0,72.1,0.866,73
118212,946250625,776.0,72.1,0.851,73
118309,947026624,775.0,74.3,0.853,73
118407,947810625,784.0,75.8,0.848,73
118509,948626625,816.0,73.5,0.856,73
118607,949410625,784.0,76.5,0.843,73
118712,950250625,840.0,76.5,0.864,73
118814,951066621,815.0,73.5,0.86,73
118912,951850621,784.0,76.5,0.853,73
119002,952570623,720.0,76.5,0.823,73
119092,953290624,720.0,76.5,0.827,73
119223,954338621,1047.0,76.5,0.492,185
119352,955370625,1032.0,76.5,0.774,169
119433,956018623,647.0,76.5,0.777,169
119518,956698625,680.0,76.5,0.829,169
119606,957402625,704.0,76.5,0.857,169
119697,958130625,728.0,76.5,0.85,169
119785,958834625,704.0,76.5,0.85,73
119879,959586625,752.0,76.5,0.861,73
119977,960370625,784.0,76.5,0.871,73
120087,961250625,880.0,76.5,0.86,73
120198,962138625,888.0,76.5,0.818,73
120301,962962621,823.0,76.5,0.826,73
120404,963786625,824.0,75.8,0.837,73
120508,964618625,832.0,72.8,0.824,73
120611,965442625,824.0,72.8,0.82,73
120703,966178625,736.0,72.8,0.842,73
120808,967018620,839.0,72.8,0.869,73
120911,967842625,824.0,72.8,0.85,73
121019,968706625,864.0,72.8,0.834,73
121116,969482625,776.0,72.8,0.824,73
121213,970258620,775.0,72.8,0.864,73
121313,971058625,800.0,72.8,0.881,73
121415,971874625,816.0,73.5,0.884,73
121522,972730625,856.0,73.5,0.856,73
121625,973554625,824.0,72.8,0.839,73
121727,974370625,816.0,73.5,0.855,73
121825,975154625,784.0,73.5,0.844,73
121921,975922625,768.0,75.0,0.872,73
122018,976698621,775.0,75.0,0.859,73
122113,977458621,760.0,75.0,0.85,73
122208,978218621,760.0,76.5,0.839,73
122306,979002622,784.0,76.5,0.861,73
122404,979786621,783.0,76.5,0.859,73
122498,980538621,752.0,77.3,0.825,73
122591,981282621,744.0,78.1,0.834,73
122687,982050625,768.0,78.1,0.868,73
122786,982842625,792.0,78.1,0.862,73
122883,983618621,775.0,78.1,0.846,73
122978,984378625,760.0,78.1,0.849,73
123081,985202624,823.0,77.3,0.871,73
123185,986034625,832.0,77.3,0.866,73
123289,986866625,832.0,77.3,0.844,73
123391,987682625,816.0,75.8,0.84,73
123482,988410625,728.0,75.8,0.808,73
123583,989218625,808.0,74.3,0.879,73
123679,989986625,768.0,74.3,0.867,73
123777,990770621,783.0,74.3,0.876,73
123879,991586622,816.0,73.5,0.862,73
123973,992338620,751.0,74.3,0.851,73
124076,993162625,824.0,74.3,0.864,73
124176,993962625,800.0,75.0,0.866,73
124272,994730625,768.0,76.5,0.846,73
124368,995498625,768.0,76.5,0.845,73
124471,996322625,824.0,76.5,0.866,73
124572,997130622,807.0,75.0,0.863,73
124674,997946623,816.0,74.3,0.861,73
124780,998794620,847.0,74.3,0.867,73
124879,999586625,792.0,74.3,0.854,73
124986,1000442623,855.0,74.3,0.879,73
125090,1001274625,832.0,73.5,0.84,73
125186,1002042625,768.0,73.5,0.84,73
125289,1002866624,823.0,72.8,0.869,73
125391,1003682621,815.0,73.5,0.856,73
125491,1004482624,800.0,73.5,0.865,73
125595,1005314622,831.0,72.8,0.867,73
125694,1006106625,792.0,73.5,0.864,73
125797,1006930625,824.0,72.8,0.853,73
125890,1007674620,743.0,73.5,0.838,73
125993,1008498620,824.0,73.5,0.867,73
126097,1009330625,832.0,72.8,0.869,73
126204,1010186625,856.0,72.8,0.862,73
126304,1010986621,799.0,72.8,0.835,73
126410,1011834621,848.0,72.8,0.874,73
126512,1012650625,816.0,72.8,0.849,73
126605,1013394625,744.0,72.8,0.828,73
126706,1014202625,808.0,73.5,0.862,73
126807,1015010625,808.0,73.5,0.873,73
126910,1015834625,824.0,73.5,0.835,73
127005,1016594625,760.0,74.3,0.829,73
127106,1017402625,808.0,74.3,0.865,73
127208,1018218624,815.0,74.3,0.866,73
127309,1019026625,808.0,74.3,0.852,73
127415,1019874625,848.0,74.3,0.848,73
127513,1020658625,784.0,74.3,0.849,73
127613,1021458625,800.0,74.3,0.859,73
127719,1022306623,847.0,74.3,0.864,73
127819,1023106625,800.0,74.3,0.859,73
127921,1023922625,816.0,74.3,0.869,73
128027,1024770625,848.0,73.5,0.873,73
128137,1025650625,880.0,73.5,0.864,73
128246,1026522625,872.0,70.8,0.836,73
128353,1027378620,855.0,70.8,0.85,73
128458,1028218620,840.0,70.8,0.886,73
128564,1029066625,848.0,70.8,0.862,73
128666,1029882625,816.0,70.8,0.847,73
128773,1030738625,856.0,70.8,0.882,73
128877,1031570623,831.0,70.8,0.868,73
128976,1032362625,792.0,70.8,0.845,73
129066,1033082625,720.0,71.4,0.833,73
129164,1033866620,783.0,72.1,0.846,73
129260,1034634625,768.0,73.5,0.833,73
129361,1035442625,808.0,74.3,0.823,73
129506,1036602621,1159.0,74.3,0.439,185
129646,1037722625,1120.0,74.3,0.761,185
129743,1038498622,775.0,74.3,0.768,185
129796,1038922625,424.0,74.3,0.454,185
129946,1040122625,1200.0,74.3,0.786,185
130049,1040946625,824.0,74.3,0.761,185
130149,1041746625,800.0,74.3,0.729,185
130200,1042154625,408.0,74.3,0.448,185
130252,1042570623,415.0,74.3,0.529,185
130406,1043802623,1232.0,74.3,0.462,185
130454,1044186623,384.0,74.3,0.552,185
130552,1044970625,784.0,74.3,0.537,185
130652,1045770623,799.0,74.3,0.547,185
130801,1046962625,1192.0,74.3,0.471,185
130892,1047690625,728.0,74.3,0.474,185
131040,1048874623,1183.0,74.3,0.77,185
131140,1049674625,800.0,74.3,0.764,185
131195,1050114621,439.0,74.3,0.458,185
131285,1050834625,720.0,74.3,0.472,185
131431,1052002625,1168.0,74.3,0.771,169
131481,1052402625,400.0,74.3,0.506,169
131620,1053514620,1111.0,74.3,0.778,169
131716,1054282620,768.0,74.3,0.807,169
131810,1055034620,752.0,74.3,0.791,169
131909,1055826625,792.0,74.3,0.808,169
132009,1056626625,800.0,74.3,0.803,169
132109,1057426625,800.0,74.3,0.794,169
132204,1058186621,759.0,74.3,0.783,169
132302,1058970625,784.0,74.3,0.818,169
132398,1059738622,767.0,74.3,0.817,169
132491,1060482625,744.0,74.3,0.845,169
132589,1061266625,784.0,74.3,0.862,169
132684,1062026625,760.0,74.3,0.855,169
132779,1062786625,760.0,74.3,0.856,169
132874,1063546620,759.0,74.3,0.859,169
132967,1064290621,744.0,74.3,0.838,169
133058,1065018623,728.0,74.3,0.853,169
133154,1065786623,768.0,74.3,0.85,169
133245,1066514625,728.0,74.3,0.816,169
133417,1067890621,1375.0,74.3,0.774,169
133504,1068586622,696.0,74.3,0.823,169
133594,1069306625,720.0,74.3,0.826,169
133678,1069978621,671.0,74.3,0.803,169
133770,1070714625,736.0,74.3,0.9,169
133856,1071402625,688.0,74.3,0.871,169
133943,1072098625,696.0,74.3,0.832,169
134112,1073450624,1351.0,74.3,0.779,169
134195,1074114625,664.0,74.3,0.797,169
134282,1074810625,696.0,74.3,0.848,169
134372,1075530625,720.0,74.3,0.868,169
134465,1076274620,743.0,74.3,0.859,169
134555,1076994625,720.0,74.3,0.827,169
134643,1077698621,703.0,74.3,0.813,169
134821,1079122625,1424.0,74.3,0.785,185
134906,1079802625,680.0,74.3,0.783,169
134988,1080458625,656.0,74.3,0.815,169
135067,1081090621,631.0,74.3,0.86,169
135145,1081714625,624.0,74.3,0.835,169
135311,1083042620,1327.0,74.3,0.816,169
135355,1083394625,352.0,74.3,0.542,169
135462,1084250625,856.0,74.3,0.536,169
135538,1084858625,608.0,74.3,0.846,169
135652,1085770624,911.0,74.3,0.863,169
135768,1086698623,927.0,74.3,0.875,169
135886,1087642623,944.0,74.3,0.831,169
136001,1088562621,919.0,74.3,0.777,169
136106,1089402625,840.0,74.3,0.782,169
136147,1089730625,328.0,74.3,0.489,185
136265,1090674625,944.0,74.3,0.482,185
136418,1091898625,1224.0,74.3,0.762,185
136524,1092746625,848.0,74.3,0.314,185
136628,1093578625,832.0,74.3,0.539,185
136732,1094410623,831.0,74.3,0.822,169
136840,1095274621,863.0,74.3,0.856,169
136947,1096130624,856.0,74.3,0.863,169
137052,1096970625,840.0,74.3,0.874,169
137162,1097850625,880.0,74.3,0.874,169
137268,1098698621,847.0,74.3,0.863,169
137368,1099498625,800.0,74.3,0.845,169
137464,1100266623,767.0,74.3,0.849,169
137565,1101074623,808.0,74.3,0.861,169
137665,1101874622,799.0,74.3,0.847,169
137767,1102690624,816.0,74.3,0.83,169
137860,1103434625,744.0,74.3,0.855,169
137956,1104202621,767.0,74.3,0.848,169
138047,1104930622,728.0,74.3,0.843,169
138132,1105610625,680.0,74.3,0.821,169
138225,1106354625,744.0,74.3,0.835,169
138416,1107882623,1527.0,74.3,0.77,185
138463,1108258624,376.0,74.3,0.488,185
138608,1109418620,1159.0,74.3,0.745,185
138714,1110266625,848.0,74.3,0.771,185
138718,1110298622,31.0,74.3,0.526,189
138866,1111482621,1183.0,74.3,0.488,185
138922,1111930625,448.0,74.3,0.801,169
139114,1113466625,1536.0,74.3,0.31,185
139268,1114698621,1231.0,74.3,0.46,185
139410,1115834625,1136.0,74.3,0.749,185
139461,1116242625,408.0,74.3,0.461,185
139605,1117394625,1152.0,74.3,0.763,185
139655,1117794625,400.0,74.3,0.492,185
139801,1118962625,1168.0,74.3,0.748,185
139896,1119722625,760.0,74.3,0.774,169
139989,1120466624,743.0,74.3,0.764,169
140075,1121154625,688.0,74.3,0.802,169
140171,1121922625,768.0,74.3,0.835,169
140267,1122690625,768.0,74.3,0.854,169
140367,1123490625,800.0,74.3,0.85,169
140466,1124282620,791.0,74.3,0.797,169
140572,1125130625,848.0,74.3,0.81,169
140683,1126018625,888.0,74.3,0.774,169
140732,1126410621,391.0,74.3,0.454,185
140900,1127754625,1344.0,74.3,0.754,185
140997,1128530623,775.0,74.3,0.768,185
141050,1128954625,424.0,74.3,0.475,185
141141,1129682625,728.0,74.3,0.497,185
141285,1130834625,1152.0,74.3,0.759,169
141379,1131586625,752.0,74.3,0.785,169
141477,1132370623,783.0,74.3,0.824,169
141577,1133170621,799.0,74.3,0.805,169
141680,1133994625,824.0,74.3,0.783,169
141780,1134794625,800.0,74.3,0.767,169
141882,1135610620,815.0,74.3,0.774,169
141987,1136450621,840.0,74.3,0.783,169
142040,1136874625,424.0,74.3,0.493,185
142191,1138082625,1208.0,74.3,0.753,185
142242,1138490624,407.0,74.3,0.478,185
142346,1139322621,831.0,74.3,0.483,185
142448,1140138625,816.0,74.3,0.481,185
142559,1141026621,887.0,74.3,0.459,185
142619,1141506623,480.0,74.3,0.846,169
142723,1142338621,831.0,74.3,0.842,169
142823,1143138625,800.0,74.3,0.865,169
142927,1143970625,832.0,74.3,0.884,169
143031,1144802625,832.0,74.3,0.825,169
143138,1145658624,855.0,74.3,0.859,169
143233,1146418625,760.0,74.3,0.834,169
143327,1147170625,752.0,74.3,0.85,169
143424,1147946623,775.0,74.3,0.887,169
143522,1148730625,784.0,74.3,0.872,169
143619,1149506625,776.0,74.3,0.861,169
143712,1150250622,743.0,74.3,0.828,169
143805,1150994625,744.0,74.3,0.825,169
143949,1152146623,1151.0,74.3,0.46,185
144049,1152946625,800.0,74.3,0.462,185
144104,1153386623,439.0,74.3,0.817,169
144203,1154178625,792.0,74.3,0.793,169
144303,1154978620,799.0,74.3,0.814,169
144405,1155794620,816.0,74.3,0.834,169
144504,1156586625,792.0,74.3,0.835,169
144599,1157346621,759.0,74.3,0.589,185
144699,1158146625,800.0,74.3,0.82,169
144798,1158938625,792.0,74.3,0.809,169
144898,1159738625,800.0,74.3,0.831,169
145087,1161250625,1512.0,74.3,0.775,185
145139,1161666625,416.0,74.3,0.484,185
145282,1162810625,1144.0,74.3,0.777,185
145384,1163626624,815.0,74.3,0.744,185
145430,1163994625,368.0,74.3,0.475,185
145576,1165162621,1167.0,74.3,0.775,169
145676,1165962625,800.0,74.3,0.786,169
145729,1166386625,424.0,74.3,0.479,185
145838,1167258625,872.0,74.3,0.473,185
145896,1167722625,464.0,74.3,0.822,169
146001,1168562622,839.0,74.3,0.816,169
146102,1169370625,808.0,74.3,0.82,169
146204,1170186625,816.0,74.3,0.844,169
146308,1171018625,832.0,74.3,0.874,169
146413,1171858625,840.0,74.3,0.868,169
146512,1172650625,792.0,74.3,0.827,169
146614,1173466625,816.0,74.3,0.859,169
146718,1174298625,832.0,74.3,0.866,169
146827,1175170623,871.0,74.3,0.886,169
146933,1176018620,847.0,74.3,0.83,169
147042,1176890620,872.0,74.3,0.835,169
147153,1177778625,888.0,74.3,0.817,169
147205,1178194625,416.0,74.3,0.506,169
147366,1179482620,1287.0,74.3,0.767,169
147419,1179906625,424.0,74.3,0.477,185
147522,1180730625,824.0,74.3,0.5,185
147664,1181866625,1136.0,74.3,0.766,169
147758,1182618621,751.0,74.3,0.78,169
147860,1183434625,816.0,74.3,0.793,169
147963,1184258625,824.0,74.3,0.77,169
148058,1185018625,760.0,74.3,0.772,169
148110,1185434625,416.0,74.3,0.482,185
148273,1186738625,1304.0,74.3,0.759,185
148320,1187114625,376.0,74.3,0.488,185
148427,1187970625,856.0,74.3,0.449,185
148576,1189162625,1192.0,74.3,0.32,185
148733,1190418625,1256.0,74.3,0.46,185
148784,1190826622,407.0,74.3,0.826,169
148937,1192050625,1224.0,74.3,0.407,185
149026,1192762625,712.0,74.3,0.45,185
149130,1193594620,831.0,74.3,0.455,185
149226,1194362625,768.0,74.3,0.457,185
149281,1194802624,439.0,74.3,0.823,169
149381,1195602624,800.0,74.3,0.777,169
149485,1196434625,832.0,74.3,0.832,169
149591,1197282621,847.0,74.3,0.857,169
149696,1198122625,840.0,74.3,0.869,169
149796,1198922625,800.0,74.3,0.827,169
149899,1199746625,824.0,74.3,0.859,169
149999,1200546625,800.0,74.3,0.865,169
150106,1201402625,856.0,74.3,0.871,169
150199,1202146625,744.0,74.3,0.787,169
150302,1202970622,823.0,74.3,0.858,169
150401,1203762625,792.0,74.3,0.869,169
150504,1204586621,823.0,74.3,0.886,169
150597,1205330625,744.0,74.3,0.843,169
150697,1206130625,800.0,74.3,0.868,169
150799,1206946622,815.0,74.3,0.863,169
150895,1207714625,768.0,74.3,0.836,169
150998,1208538623,823.0,74.3,0.864,169
151104,1209386624,848.0,74.3,0.861,169
151205,1210194620,807.0,74.3,0.84,169
151309,1211026622,832.0,74.3,0.86,169
151415,1211874625,848.0,74.3,0.845,169
151514,1212666625,792.0,74.3,0.832,169
151618,1213498625,832.0,74.3,0.83,169
151723,1214338625,840.0,74.3,0.822,169
151827,1215170625,832.0,74.3,0.804,169
151920,1215914625,744.0,74.3,0.789,169
152029,1216786625,872.0,74.3,0.816,169
152137,1217650625,864.0,74.3,0.797,169
152240,1218474625,824.0,74.3,0.772,169
152344,1219306625,832.0,74.3,0.782,169
152398,1219738621,431.0,74.3,0.498,185
152550,1220954625,1216.0,74.3,0.767,185
152654,1221786625,832.0,74.3,0.778,185
152706,1222202624,415.0,74.3,0.487,185
152810,1223034625,832.0,74.3,0.471,185
152957,1224210623,1175.0,74.3,0.761,185
153008,1224618625,408.0,74.3,0.462,185
153109,1225426625,808.0,74.3,0.471,185
153211,1226242625,816.0,74.3,0.453,185
153309,1227026625,784.0,74.3,0.465,185
153370,1227514625,488.0,74.3,0.832,169
153482,1228410625,896.0,74.3,0.853,169
153585,1229234622,823.0,74.3,0.843,169
153689,1230066625,832.0,74.3,0.879,169
153796,1230922625,856.0,74.3,0.865,169
153901,1231762625,840.0,74.3,0.848,169
154001,1232562625,800.0,74.3,0.844,169
154107,1233410625,848.0,74.3,0.855,169
154210,1234234625,824.0,74.3,0.825,169
154311,1235042625,808.0,74.3,0.822,169
154418,1235898621,855.0,74.3,0.811,169
154532,1236810625,912.0,74.3,0.789,169
154587,1237250623,439.0,74.3,0.507,169
154750,1238554625,1304.0,74.3,0.768,185
154754,1238586625,32.0,74.3,0.526,189
154860,1239434625,848.0,74.3,0.848,169
154971,1240322621,887.0,74.3,0.874,169
155078,1241178625,856.0,74.3,0.866,169
155191,1242082625,904.0,74.3,0.888,169
155305,1242994625,912.0,74.3,0.86,169
155422,1243930625,936.0,74.3,0.777,169
155477,1244370623,439.0,74.3,0.48,185
155586,1245242621,871.0,74.3,0.491,185
155650,1245754620,511.0,74.3,0.557,185
155760,1246634625,880.0,74.3,0.861,169
155866,1247482625,848.0,74.3,0.837,169
155975,1248354625,872.0,74.3,0.875,169
156084,1249226625,872.0,74.3,0.894,169
156199,1250146621,919.0,74.3,0.87,169
156317,1251090625,944.0,74.3,0.797,169
156431,1252002625,912.0,74.3,0.786,169
156544,1252906625,904.0,74.3,0.315,185
156665,1253874625,968.0,74.3,0.865,169
156776,1254762625,888.0,74.3,0.864,169
156875,1255554625,792.0,74.3,0.869,169
156983,1256418625,864.0,74.3,0.889,169
157092,1257290625,872.0,74.3,0.861,169
157192,1258090623,799.0,74.3,0.83,169
157284,1258826624,736.0,74.3,0.83,169
157377,1259570625,744.0,74.3,0.867,169
157476,1260362623,791.0,74.3,0.888,169
157582,1261210621,847.0,74.3,0.871,169
157685,1262034621,824.0,74.3,0.834,169
157782,1262810625,776.0,74.3,0.839,169
157885,1263634621,823.0,74.3,0.848,169
157990,1264474624,840.0,74.3,0.836,169
158088,1265258625,784.0,74.3,0.815,169
158184,1266026621,767.0,74.3,0.844,169
158278,1266778624,752.0,74.3,0.857,169
158373,1267538625,760.0,74.3,0.868,169
158463,1268258625,720.0,74.3,0.858,169
158548,1268938625,680.0,74.3,0.801,169
158687,1270050625,1112.0,74.3,0.463,185
158817,1271090621,1039.0,74.3,0.768,169
158909,1271826625,736.0,74.3,0.805,169
159002,1272570625,744.0,74.3,0.809,169
159097,1273330622,759.0,74.3,0.829,169
159192,1274090622,760.0,74.3,0.802,169
159291,1274882625,792.0,74.3,0.827,169
159391,1275682622,799.0,74.3,0.822,169
159486,1276442623,760.0,74.3,0.815,169
159575,1277154621,711.0,74.3,0.818,169
159671,1277922625,768.0,74.3,0.864,169
159768,1278698622,775.0,74.3,0.886,169
159864,1279466623,768.0,74.3,0.85,169
159962,1280250621,783.0,74.3,0.858,169
160066,1281082624,832.0,74.3,0.863,169
160166,1281882625,800.0,74.3,0.839,169
160268,1282698625,816.0,74.3,0.849,169
160374,1283546622,847.0,74.3,0.852,169
160474,1284346625,800.0,74.3,0.84,169
160574,1285146623,799.0,74.3,0.843,169
160678,1285978625,832.0,74.3,0.848,169
160778,1286778625,800.0,74.3,0.833,169
160874,1287546625,768.0,74.3,0.826,169
160976,1288362622,815.0,74.3,0.863,169
161077,1289170625,808.0,74.3,0.845,169
161171,1289922625,752.0,74.3,0.824,169
161270,1290714625,792.0,74.3,0.858,169
161369,1291506620,791.0,74.3,0.87,169
161471,1292322621,816.0,74.3,0.86,169
161565,1293074624,752.0,74.3,0.839,169
161669,1293906621,831.0,74.3,0.856,169
161765,1294674622,768.0,74.3,0.842,169
161860,1295434625,760.0,74.3,0.856,169
161961,1296242625,808.0,74.3,0.856,169
162059,1297026625,784.0,74.3,0.866,169
162156,1297802625,776.0,74.3,0.84,169
162246,1298522625,720.0,74.3,0.834,169
162341,1299282623,759.0,74.3,0.87,169
162440,1300074625,792.0,74.3,0.865,169
162537,1300850625,776.0,74.3,0.837,169
162626,1301562623,711.0,74.3,0.785,169
162758,1302618625,1056.0,74.3,0.488,185
162858,1303418625,800.0,74.3,0.495,185
163002,1304570625,1152.0,74.3,0.763,169
163045,1304914620,343.0,74.3,0.476,185
163149,1305746625,832.0,74.3,0.509,169
163302,1306970625,1224.0,74.3,0.759,169
163341,1307282625,312.0,74.3,0.491,185
163459,1308226621,943.0,74.3,0.479,185
163559,1309026625,800.0,74.3,0.508,169
163625,1309554621,527.0,74.3,0.814,169
163726,1310362623,808.0,74.3,0.81,169
163839,1311266623,904.0,74.3,0.876,169
163944,1312106625,840.0,74.3,0.866,169
164042,1312890620,783.0,74.3,0.853,169
164149,1313746620,856.0,74.3,0.869,169
164255,1314594625,848.0,74.3,0.861,169
164359,1315426625,832.0,74.3,0.839,169
164457,1316210625,784.0,74.3,0.836,169
164563,1317058621,847.0,74.3,0.857,169
164667,1317890622,832.0,74.3,0.839,169
164769,1318706622,816.0,74.3,0.822,169
164865,1319474620,767.0,74.3,0.808,169
164965,1320274625,800.0,74.3,0.845,169
165066,1321082621,807.0,74.3,0.832,169
165167,1321890622,808.0,74.3,0.82,169
165266,1322682625,792.0,74.3,0.813,169
165375,1323554624,871.0,74.3,0.816,169
165483,1324418621,863.0,74.3,0.789,169
165584,1325226624,808.0,74.3,0.781,169
165685,1326034625,808.0,74.3,0.762,169
165738,1326458624,423.0,74.3,0.473,185
165902,1327770625,1312.0,74.3,0.774,185
166006,1328602625,832.0,74.3,0.301,185
166116,1329482622,879.0,74.3,0.842,169
166224,1330346625,864.0,74.3,0.859,169
166331,1331202621,855.0,74.3,0.868,169
166433,1332018621,816.0,74.3,0.853,169
166528,1332778620,759.0,74.3,0.841,169
166622,1333530625,752.0,74.3,0.845,169
166715,1334274622,743.0,74.3,0.82,169
166851,1335362625,1088.0,74.3,0.467,185
166951,1336162620,799.0,74.3,0.485,185
167042,1336890625,728.0,74.3,0.5,169
167148,1337738625,848.0,74.3,0.465,185
167232,1338410621,671.0,74.3,0.539,169
167387,1339650624,1240.0,74.3,0.747,169
167488,1340458625,808.0,74.3,0.782,169
167542,1340890623,431.0,74.3,0.469,185
167643,1341698621,807.0,74.3,0.472,185
167755,1342594625,896.0,74.3,0.437,185
167806,1343002620,407.0,74.3,0.793,169
167918,1343898620,896.0,74.3,0.861,169
168030,1344794625,896.0,74.3,0.868,169
168133,1345618622,823.0,74.3,0.866,169
168244,1346506625,888.0,74.3,0.865,169
168347,1347330622,823.0,74.3,0.83,169
168450,1348154622,824.0,74.3,0.841,169
168557,1349010620,855.0,74.3,0.831,169
168656,1349802625,792.0,74.3,0.803,169
168753,1350578625,776.0,74.3,0.818,169
168850,1351354623,775.0,74.3,0.836,169
168945,1352114625,760.0,74.3,0.849,169
169034,1352826625,712.0,74.3,0.86,169
169119,1353506625,680.0,74.3,0.83,169
169209,1354226624,719.0,74.3,0.848,169
169308,1355018625,792.0,74.3,0.852,169
169408,1355818625,800.0,74.3,0.832,169
169501,1356562625,744.0,74.3,0.774,169
169600,1357354625,792.0,74.3,0.829,169
169699,1358146625,792.0,74.3,0.817,169
169846,1359322624,1175.0,74.3,0.453,185
169905,1359794625,472.0,74.3,0.837,169
170003,1360578625,784.0,74.3,0.788,169
170102,1361370625,792.0,74.3,0.837,169
170205,1362194621,823.0,74.3,0.83,169
170304,1362986625,792.0,74.3,0.812,169
170403,1363778625,792.0,74.3,0.829,169
170506,1364602625,824.0,74.3,0.851,169
170610,1365434625,832.0,74.3,0.838,169
170707,1366210625,776.0,74.3,0.827,169
170815,1367074625,864.0,74.3,0.865,169
170920,1367914625,840.0,74.3,0.857,169
171018,1368698625,784.0,74.3,0.85,169
171114,1369466625,768.0,74.3,0.843,169
171214,1370266622,799.0,74.3,0.862,169
171309,1371026621,759.0,74.3,0.831,169
171408,1371818625,792.0,74.3,0.86,169
171510,1372634625,816.0,74.3,0.86,169
171609,1373426625,792.0,74.3,0.845,169
171709,1374226624,799.0,74.3,0.851,169
171813,1375058625,832.0,74.3,0.857,169
171915,1375874625,816.0,74.3,0.859,169
172010,1376634625,760.0,74.3,0.843,169
172114,1377466625,832.0,74.3,0.87,169
172217,1378290623,823.0,74.3,0.865,169
172316,1379082621,791.0,74.3,0.847,169
172423,1379938625,856.0,74.3,0.872,169
172527,1380770625,832.0,74.3,0.828,169
172624,1381546625,776.0,74.3,0.836,169
172730,1382394625,848.0,74.3,0.834,169
172832,1383210620,815.0,74.3,0.835,169
172931,1384002625,792.0,74.3,0.826,169
173027,1384770625,768.0,74.3,0.85,169
173130,1385594624,823.0,74.3,0.842,169
173227,1386370625,776.0,74.3,0.826,169
173325,1387154625,784.0,74.3,0.842,169
173431,1388002625,848.0,74.3,0.824,169
173538,1388858625,856.0,74.3,0.795,169
173633,1389618623,759.0,74.3,0.779,169
173733,1390418625,800.0,74.3,0.833,169
173833,1391218625,800.0,74.3,0.833,169
173935,1392034624,815.0,74.3,0.818,169
174032,1392810625,776.0,74.3,0.812,169
174142,1393690625,880.0,74.3,0.809,169
174250,1394554625,864.0,74.3,0.788,169
174352,1395370621,815.0,74.3,0.769,169
174459,1396226624,856.0,74.3,0.773,169
174566,1397082623,855.0,74.3,0.761,185
174620,1397514625,432.0,74.3,0.464,185
174764,1398666625,1152.0,74.3,0.759,185
174864,1399466625,800.0,74.3,0.77,185
174918,1399898625,432.0,74.3,0.477,185
175051,1400962621,1063.0,74.3,0.766,169
175146,1401722625,760.0,74.3,0.795,169
175242,1402490625,768.0,74.3,0.798,169
175335,1403234625,744.0,74.3,0.804,169
175434,1404026624,791.0,74.3,0.818,169
175533,1404818625,792.0,74.3,0.806,169
175629,1405586625,768.0,74.3,0.809,169
175732,1406410625,824.0,74.3,0.802,169
175828,1407178625,768.0,74.3,0.78,169
175928,1407978625,800.0,74.3,0.816,169
176034,1408826625,848.0,74.3,0.791,169
176134,1409626625,800.0,74.3,0.787,169
176233,1410418622,791.0,74.3,0.787,169
176335,1411234625,816.0,74.3,0.795,169
176433,1412018621,783.0,74.3,0.785,169
176528,1412778621,760.0,74.3,0.808,169
176627,1413570623,792.0,74.3,0.826,169
176726,1414362625,792.0,74.3,0.823,169
176824,1415146622,783.0,74.3,0.8,169
176915,1415874625,728.0,74.3,0.814,169
177011,1416642625,768.0,74.3,0.845,169
177107,1417410621,767.0,74.3,0.854,169
177200,1418154623,744.0,74.3,0.842,169
177289,1418866625,712.0,74.3,0.85,169
177385,1419634625,768.0,74.3,0.857,169
177473,1420338621,703.0,74.3,0.829,169
177599,1421346625,1008.0,74.3,0.518,169
177683,1422018622,671.0,74.3,0.544,169
177822,1423130625,1112.0,74.3,0.816,169
177907,1423810623,679.0,74.3,0.848,169
178002,1424570623,760.0,74.3,0.88,169
178413,1427858625,0.0,0.0,0.8,75
178520,1428714620,855.0,70.1,0.858,73
178629,1429586623,872.0,69.4,0.859,73
178732,1430410620,823.0,70.1,0.838,73
178843,1431298625,888.0,69.4,0.868,73
178950,1432154625,856.0,70.1,0.857,73
179054,1432986625,832.0,70.1,0.859,73
179152,1433770625,784.0,70.1,0.839,73
179258,1434618625,848.0,70.4,0.865,73
179360,1435434625,816.0,70.8,0.855,73
179462,1436250625,816.0,72.1,0.832,73
179560,1437034625,784.0,72.8,0.823,73
179664,1437866625,832.0,72.1,0.853,73
179767,1438690625,824.0,72.8,0.846,73
179864,1439466625,776.0,73.5,0.802,73
179967,1440290622,823.0,73.5,0.841,73
180071,1441122620,831.0,72.8,0.84,73
180175,1441954625,832.0,72.8,0.856,73
180274,1442746625,792.0,72.8,0.806,73
180373,1443538625,792.0,72.8,0.816,73
180474,1444346621,807.0,72.8,0.852,73
180579,1445186625,840.0,72.8,0.854,73
180677,1445970625,784.0,74.3,0.814,73
180781,1446802621,831.0,72.8,0.835,73
180887,1447650624,848.0,72.1,0.854,73
180989,1448466625,816.0,73.5,0.853,73
181088,1449258624,791.0,74.3,0.824,73
181183,1450018625,760.0,74.3,0.826,73
181280,1450794625,776.0,74.3,0.844,73
181377,1451570625,776.0,75.8,0.851,73
181474,1452346625,776.0,76.5,0.818,73
181570,1453114625,768.0,77.3,0.812,73
181675,1453954625,840.0,77.3,0.853,73
181779,1454786622,831.0,77.3,0.849,73
181889,1455666620,879.0,77.3,0.865,73
181990,1456474625,808.0,77.3,0.828,73
182100,1457354622,879.0,74.3,0.854,73
182210,1458234625,880.0,72.1,0.837,73
182315,1459074625,840.0,71.4,0.838,73
182414,1459866623,791.0,71.4,0.815,73
182513,1460658625,792.0,71.4,0.859,73
182615,1461474625,816.0,72.1,0.872,73
182718,1462298625,824.0,72.8,0.863,73
182817,1463090623,791.0,73.5,0.842,73
182912,1463850625,760.0,73.5,0.836,73
183016,1464682620,831.0,73.5,0.874,73
183128,1465578620,896.0,73.5,0.871,73
183248,1466538625,960.0,73.5,0.847,73
183359,1467426625,888.0,72.8,0.815,73
183470,1468314624,887.0,72.1,0.838,73
183586,1469242620,927.0,67.6,0.81,73
183700,1470154625,912.0,67.6,0.792,73
183813,1471058621,903.0,67.0,0.813,73
183922,1471930625,872.0,67.0,0.821,73
184026,1472762621,831.0,67.0,0.82,73
184123,1473538625,776.0,67.6,0.829,73
184226,1474362621,823.0,67.6,0.875,73
184329,1475186625,824.0,68.8,0.868,73
184435,1476034625,848.0,70.8,0.86,73
184535,1476834624,799.0,72.1,0.847,73
184643,1477698621,863.0,72.1,0.886,73
184750,1478554625,856.0,72.1,0.873,73
184852,1479370621,815.0,72.8,0.849,73
184950,1480154625,784.0,72.8,0.847,73
185053,1480978620,823.0,72.8,0.869,73
185149,1481746624,768.0,72.8,0.842,73
185242,1482490623,743.0,73.5,0.842,73
185339,1483266621,775.0,75.0,0.846,73
185441,1484082625,816.0,73.5,0.86,73
185536,1484842623,759.0,76.5,0.805,73
185633,1485618625,776.0,77.3,0.837,73
185733,1486418622,799.0,77.3,0.844,73
185830,1487194625,776.0,77.3,0.846,73
185921,1487922625,728.0,77.3,0.802,73
186012,1488650625,728.0,77.3,0.82,73
186108,1489418623,767.0,77.3,0.838,73
186207,1490210621,791.0,77.3,0.854,73
186311,1491042625,832.0,77.3,0.849,73
186411,1491842625,800.0,77.3,0.829,73
186510,1492634625,792.0,75.8,0.837,73
186612,1493450625,816.0,75.8,0.863,73
186718,1494298620,847.0,75.8,0.863,73
186817,1495090625,792.0,75.8,0.835,73
186915,1495874625,784.0,75.8,0.834,73
187013,1496658621,783.0,75.8,0.868,73
187118,1497498623,840.0,75.0,0.863,73
187219,1498306622,807.0,75.0,0.852,73
187310,1499034621,727.0,75.8,0.842,73
187405,1499794625,760.0,75.8,0.88,73
187506,1500602622,807.0,75.8,0.879,73
187613,1501458625,856.0,75.8,0.871,73
187719,1502306624,847.0,74.3,0.839,73
187823,1503138625,832.0,74.3,0.829,73
187931,1504002621,863.0,72.1,0.85,73
188037,1504850625,848.0,72.1,0.859,73
188137,1505650625,800.0,72.1,0.833,73
188240,1506474625,824.0,72.1,0.859,73
188348,1507338625,864.0,70.8,0.83,73
188452,1508170624,831.0,70.8,0.856,73
188557,1509010620,839.0,71.4,0.861,73
188666,1509882625,872.0,71.4,0.864,73
188772,1510730625,848.0,70.8,0.837,73
188878,1511578620,847.0,70.8,0.873,73
188988,1512458625,880.0,70.8,0.867,73
189094,1513306625,848.0,70.8,0.841,73
189196,1514122627,816.0,70.8,0.855,73
189309,1515026625,903.0,70.8,0.881,73
189422,1515930624,903.0,70.8,0.854,73
189525,1516754621,823.0,70.8,0.856,73
189636,1517642621,888.0,70.8,0.864,73
189744,1518506622,864.0,69.4,0.858,73
189850,1519354625,848.0,69.4,0.852,73
189950,1520154625,800.0,70.8,0.867,73
190055,1520994620,839.0,70.8,0.875,73
190157,1521810623,816.0,70.8,0.841,73
190254,1522586625,776.0,71.4,0.826,73
190355,1523394625,808.0,72.8,0.857,73
190460,1524234623,839.0,71.4,0.863,73
190567,1525090625,856.0,71.4,0.835,73
190667,1525890625,800.0,73.5,0.832,73
190766,1526682625,792.0,74.3,0.848,73
190865,1527474625,792.0,74.3,0.863,73
190965,1528274625,800.0,75.0,0.838,73
191059,1529026624,751.0,75.0,0.816,73
191159,1529826625,800.0,75.0,0.848,73
191260,1530634625,808.0,75.0,0.859,73
191361,1531442625,808.0,75.0,0.825,73
191464,1532266625,824.0,75.0,0.852,73
191569,1533106621,839.0,75.0,0.867,73
191678,1533978625,872.0,74.3,0.871,73
191784,1534826625,848.0,74.3,0.844,73
191890,1535674625,848.0,72.8,0.872,73
192000,1536554623,879.0,71.4,0.854,73
192106,1537402625,848.0,70.8,0.842,73
192205,1538194624,791.0,70.8,0.824,73
192307,1539010625,816.0,70.8,0.875,73
192406,1539802620,791.0,70.8,0.876,73
192505,1540594625,792.0,70.8,0.854,73
192600,1541354625,760.0,73.5,0.814,73
192702,1542170623,815.0,73.5,0.864,73
192803,1542978625,808.0,74.3,0.864,73
192909,1543826621,847.0,74.3,0.861,73
193008,1544618622,792.0,75.8,0.809,73
193099,1545346625,728.0,75.8,0.794,73
193188,1546058625,712.0,75.8,0.809,73
193280,1546794625,736.0,75.8,0.606,185
193395,1547714625,920.0,75.8,0.905,169
193523,1548738621,1023.0,75.8,0.871,169
193655,1549794621,1056.0,75.8,0.778,185
