seq,t_us,raw,avg,filtered,peak,detector_score,expected_rr_ms,hr_bpm,flags
1830,15194622,124.0,127.0,-47.0,0,0.503,672.0,0.0,17
1831,15202624,126.0,126.0,-47.0,0,0.503,672.0,0.0,17
1832,15210625,124.0,126.0,-47.0,0,0.503,672.0,0.0,17
1833,15218623,122.0,125.0,-48.0,0,0.533,672.0,0.0,17
1834,15226625,126.0,125.0,-48.0,1,0.507,672.0,0.0,17
1835,15234625,122.0,124.0,-48.0,0,0.507,672.0,0.0,17
1836,15242625,124.0,124.0,-48.0,0,0.507,672.0,0.0,17
1837,15250622,127.0,125.0,-48.0,0,0.507,672.0,0.0,17
1838,15258625,124.0,125.0,-47.0,0,0.529,672.0,0.0,17
1839,15266621,127.0,125.0,-47.0,1,0.504,672.0,0.0,17
1840,15274621,126.0,125.0,-47.0,0,0.504,672.0,0.0,17
1841,15282621,127.0,126.0,-46.0,0,0.525,672.0,0.0,17
1842,15290625,127.0,126.0,-46.0,1,0.5,672.0,0.0,17
1843,15298625,127.0,126.0,-45.0,0,0.522,672.0,0.0,17
1844,15306624,135.0,128.0,-44.0,0,0.518,672.0,0.0,17
1845,15314623,135.0,130.0,-43.0,0,0.514,672.0,0.0,17
1846,15322625,134.0,131.0,-41.0,0,0.533,672.0,0.0,17
1847,15330622,134.0,132.0,-40.0,0,0.502,672.0,0.0,17
1848,15338622,139.0,133.0,-39.0,0,0.498,672.0,0.0,17
1849,15346625,136.0,134.0,-38.0,0,0.493,672.0,0.0,17
1850,15354625,139.0,135.0,-36.0,0,0.513,672.0,0.0,17
1851,15362622,142.0,137.0,-35.0,0,0.481,672.0,0.0,17
1852,15370624,142.0,138.0,-33.0,0,0.5,672.0,0.0,17
1853,15378624,144.0,140.0,-32.0,0,0.469,672.0,0.0,17
1854,15386622,140.0,140.0,-31.0,0,0.465,672.0,0.0,17
1855,15394625,148.0,142.0,-29.0,0,0.484,672.0,0.0,17
1856,15402623,147.0,143.0,-28.0,0,0.452,672.0,0.0,17
1857,15410623,144.0,143.0,-27.0,0,0.448,672.0,0.0,17
1858,15418625,142.0,143.0,-26.0,0,0.444,672.0,0.0,17
1859,15426625,145.0,143.0,-25.0,0,0.44,672.0,0.0,17
1860,15434623,144.0,144.0,-25.0,1,0.414,672.0,0.0,17
1861,15442625,148.0,145.0,-24.0,0,0.435,672.0,0.0,17
1862,15450625,145.0,145.0,-23.0,0,0.431,672.0,0.0,17
1863,15458625,148.0,146.0,-22.0,0,0.427,672.0,0.0,17
1864,15466625,156.0,148.0,-21.0,0,0.423,672.0,0.0,17
1865,15474624,161.0,151.0,-19.0,0,0.442,672.0,0.0,17
1866,15482623,166.0,155.0,-17.0,0,0.434,672.0,0.0,17
1867,15490623,175.0,160.0,-14.0,0,0.451,672.0,0.0,17
1868,15498623,183.0,165.0,-10.0,0,0.465,672.0,0.0,17
1869,15506625,196.0,173.0,-5.0,0,0.473,672.0,0.0,17
1870,15514625,208.0,181.0,1.0,0,0.478,672.0,0.0,17
1871,15522625,223.0,191.0,8.0,0,0.526,672.0,0.0,17
1872,15530625,240.0,203.0,16.0,0,0.575,672.0,0.0,17
1873,15538625,249.0,214.0,25.0,0,0.627,672.0,0.0,17
1874,15546625,268.0,227.0,35.0,0,0.68,672.0,0.0,17
1875,15554625,280.0,240.0,46.0,0,0.735,672.0,0.0,17
1876,15562625,293.0,253.0,57.0,0,0.778,672.0,0.0,17
1877,15570625,301.0,265.0,68.0,0,0.816,672.0,0.0,17
1878,15578625,308.0,275.0,79.0,0,0.849,672.0,0.0,17
1879,15586625,317.0,285.0,89.0,0,0.863,672.0,0.0,17
1880,15594625,324.0,295.0,99.0,0,0.883,672.0,0.0,17
1881,15602621,324.0,302.0,108.0,0,0.885,672.0,0.0,17
1882,15610623,325.0,307.0,115.0,0,0.861,672.0,0.0,17
1883,15618624,319.0,310.0,121.0,0,0.846,672.0,0.0,17
1884,15626625,316.0,312.0,126.0,0,0.827,672.0,0.0,17
1885,15634625,308.0,311.0,128.0,0,0.748,672.0,0.0,17
1886,15642625,306.0,310.0,130.0,0,0.749,672.0,0.0,17
1887,15650623,295.0,306.0,129.0,1,0.721,672.0,0.0,17
1888,15658625,287.0,301.0,128.0,0,0.719,672.0,0.0,17
1889,15666625,277.0,296.0,125.0,0,0.77,672.0,0.0,17
1890,15674624,268.0,289.0,120.0,0,0.817,672.0,0.0,17
1891,15682622,257.0,281.0,115.0,0,0.81,672.0,0.0,17
1892,15690624,248.0,273.0,108.0,0,0.843,672.0,0.0,17
1893,15698625,238.0,265.0,101.0,0,0.83,672.0,0.0,17
1894,15706623,226.0,255.0,93.0,0,0.83,672.0,0.0,17
1895,15714625,215.0,245.0,85.0,0,0.809,672.0,0.0,17
1896,15722625,207.0,236.0,76.0,0,0.798,672.0,0.0,17
1897,15730625,191.0,225.0,66.0,0,0.777,672.0,0.0,17
1898,15738625,183.0,215.0,56.0,0,0.741,672.0,0.0,17
1899,15746625,175.0,205.0,46.0,0,0.702,672.0,0.0,17
1900,15754625,167.0,196.0,37.0,0,0.653,672.0,0.0,17
1901,15762625,160.0,187.0,27.0,0,0.626,672.0,0.0,17
1902,15770620,152.0,179.0,18.0,0,0.577,672.0,0.0,17
1903,15778622,147.0,171.0,9.0,0,0.543,672.0,0.0,17
1904,15786625,144.0,164.0,1.0,0,0.508,672.0,0.0,17
1905,15794625,143.0,159.0,-6.0,0,0.513,672.0,0.0,17
1906,15802621,138.0,154.0,-12.0,0,0.514,672.0,0.0,17
1907,15810623,133.0,149.0,-18.0,0,0.536,672.0,0.0,17
1908,15818625,129.0,144.0,-24.0,0,0.559,672.0,0.0,17
1909,15826623,124.0,139.0,-30.0,0,0.582,672.0,0.0,17
1910,15834625,127.0,136.0,-34.0,0,0.549,672.0,0.0,17
1911,15842623,133.0,135.0,-38.0,0,0.564,672.0,0.0,17
1912,15850625,127.0,133.0,-40.0,0,0.519,672.0,0.0,17
1913,15858625,127.0,132.0,-43.0,0,0.556,672.0,0.0,17
1914,15866623,130.0,131.0,-45.0,0,0.537,672.0,0.0,17
1915,15874622,127.0,130.0,-46.0,0,0.515,672.0,0.0,17
1916,15882625,127.0,130.0,-47.0,0,0.518,672.0,0.0,17
1917,15890623,127.0,129.0,-48.0,0,0.521,672.0,0.0,17
1918,15898625,125.0,128.0,-49.0,0,0.524,672.0,0.0,17
1919,15906625,126.0,127.0,-50.0,0,0.528,672.0,0.0,17
1920,15914625,131.0,128.0,-50.0,1,0.503,672.0,0.0,17
1921,15922621,125.0,128.0,-50.0,0,0.502,672.0,0.0,17
1922,15930624,125.0,127.0,-50.0,0,0.502,672.0,0.0,17
1923,15938624,124.0,126.0,-51.0,0,0.529,672.0,0.0,17
1924,15946625,122.0,125.0,-51.0,1,0.504,672.0,0.0,17
1925,15954625,125.0,125.0,-51.0,0,0.504,672.0,0.0,17
1926,15962625,123.0,125.0,-51.0,0,0.503,672.0,0.0,17
1927,15970625,123.0,124.0,-52.0,0,0.53,672.0,0.0,17
1928,15978625,120.0,123.0,-52.0,1,0.506,672.0,0.0,17
1929,15986625,120.0,122.0,-52.0,0,0.505,672.0,0.0,17
1930,15994621,115.0,121.0,-53.0,0,0.532,672.0,0.0,17
1931,16002625,116.0,120.0,-54.0,0,0.535,672.0,0.0,17
1932,16010620,117.0,119.0,-54.0,1,0.511,672.0,0.0,17
1933,16018625,117.0,118.0,-54.0,0,0.51,672.0,0.0,17
1934,16026624,116.0,118.0,-55.0,0,0.537,672.0,0.0,17
1935,16034621,115.0,117.0,-55.0,1,0.512,672.0,0.0,17
1936,16042625,113.0,116.0,-56.0,0,0.54,672.0,0.0,17
1937,16050623,116.0,116.0,-56.0,1,0.515,672.0,0.0,17
1938,16058625,114.0,116.0,-56.0,0,0.514,672.0,0.0,17
1939,16066625,117.0,116.0,-56.0,0,0.514,672.0,0.0,17
1940,16074620,116.0,116.0,-56.0,0,0.513,672.0,0.0,17
1941,16082625,119.0,117.0,-55.0,0,0.533,672.0,0.0,17
1942,16090625,122.0,118.0,-55.0,1,0.509,672.0,0.0,17
1943,16098625,122.0,119.0,-54.0,0,0.529,672.0,0.0,17
1944,16106621,125.0,120.0,-52.0,0,0.547,672.0,0.0,17
1945,16114620,125.0,122.0,-51.0,0,0.518,672.0,0.0,17
1946,16122620,127.0,123.0,-50.0,0,0.514,672.0,0.0,17
1947,16130625,125.0,123.0,-49.0,0,0.51,672.0,0.0,17
1948,16138624,131.0,125.0,-47.0,0,0.528,672.0,0.0,17
1949,16146625,132.0,127.0,-46.0,0,0.498,672.0,0.0,17
1950,16154622,133.0,128.0,-44.0,0,0.516,672.0,0.0,17
1951,16162625,138.0,131.0,-42.0,0,0.509,672.0,0.0,17
1952,16170625,132.0,131.0,-41.0,0,0.479,672.0,0.0,17
1953,16178621,134.0,132.0,-39.0,0,0.497,672.0,0.0,17
1954,16186622,132.0,132.0,-38.0,0,0.468,672.0,0.0,17
1955,16194625,139.0,134.0,-37.0,0,0.464,672.0,0.0,17
1956,16202623,132.0,133.0,-36.0,0,0.46,672.0,0.0,17
1957,16210623,132.0,133.0,-35.0,0,0.457,672.0,0.0,17
1958,16218625,132.0,133.0,-35.0,1,0.433,672.0,0.0,17
1959,16226625,132.0,133.0,-34.0,0,0.453,672.0,0.0,17
1960,16234625,139.0,134.0,-34.0,1,0.429,672.0,0.0,17
1961,16242625,133.0,134.0,-33.0,0,0.449,672.0,0.0,17
1962,16250620,140.0,135.0,-32.0,0,0.445,672.0,0.0,17
1963,16258623,141.0,137.0,-31.0,0,0.442,672.0,0.0,17
1964,16266625,137.0,137.0,-30.0,0,0.438,672.0,0.0,17
1965,16274625,142.0,138.0,-29.0,0,0.434,672.0,0.0,17
1966,16282623,142.0,139.0,-28.0,0,0.431,672.0,0.0,17
1967,16290623,140.0,139.0,-28.0,1,0.407,672.0,0.0,17
1968,16298625,143.0,140.0,-27.0,0,0.427,672.0,0.0,17
1969,16306621,144.0,141.0,-26.0,0,0.423,672.0,0.0,17
1970,16314623,144.0,142.0,-25.0,0,0.42,672.0,0.0,17
1971,16322625,141.0,142.0,-24.0,0,0.416,672.0,0.0,17
1972,16330623,148.0,143.0,-23.0,0,0.412,672.0,0.0,17
1973,16338625,147.0,144.0,-22.0,0,0.408,672.0,0.0,17
1974,16346620,149.0,145.0,-21.0,0,0.404,672.0,0.0,17
1975,16354624,144.0,145.0,-20.0,0,0.4,672.0,0.0,17
1976,16362625,147.0,145.0,-20.0,1,0.375,672.0,0.0,17
1977,16370625,148.0,146.0,-19.0,0,0.396,672.0,0.0,17
1978,16378623,148.0,147.0,-18.0,0,0.392,672.0,0.0,17
1979,16386621,149.0,147.0,-18.0,1,0.366,672.0,0.0,17
1980,16394625,151.0,148.0,-17.0,0,0.387,672.0,0.0,17
1981,16402620,148.0,148.0,-16.0,0,0.383,672.0,0.0,17
1982,16410625,153.0,149.0,-15.0,0,0.379,672.0,0.0,17
1983,16418625,160.0,152.0,-14.0,0,0.374,672.0,0.0,17
1984,16426625,168.0,156.0,-12.0,0,0.394,672.0,0.0,17
1985,16434622,176.0,161.0,-9.0,0,0.412,672.0,0.0,17
1986,16442625,185.0,167.0,-5.0,0,0.425,672.0,0.0,17
1987,16450624,199.0,174.0,-1.0,0,0.434,672.0,0.0,17
1988,16458621,204.0,182.0,5.0,0,0.506,672.0,0.0,17
1989,16466623,226.0,192.0,12.0,0,0.554,672.0,0.0,17
1990,16474625,239.0,204.0,20.0,0,0.604,672.0,0.0,17
1991,16482625,253.0,216.0,29.0,0,0.656,672.0,0.0,17
1992,16490622,265.0,228.0,39.0,0,0.709,672.0,0.0,17
1993,16498625,280.0,240.0,50.0,0,0.761,672.0,0.0,17
1994,16506625,289.0,252.0,60.0,0,0.785,672.0,0.0,17
1995,16514623,298.0,263.0,71.0,0,0.829,672.0,0.0,17
1996,16522624,302.0,273.0,81.0,0,0.844,672.0,0.0,17
1997,16530625,311.0,282.0,91.0,0,0.865,672.0,0.0,17
1998,16538621,310.0,289.0,99.0,0,0.851,672.0,0.0,17
1999,16546625,311.0,294.0,107.0,0,0.862,672.0,0.0,17
2000,16554623,314.0,299.0,113.0,0,0.83,672.0,0.0,17
2001,16562622,313.0,302.0,118.0,0,0.812,672.0,0.0,17
2002,16570622,310.0,304.0,122.0,0,0.79,672.0,0.0,17
2003,16578623,305.0,304.0,125.0,0,0.766,672.0,0.0,17
2004,16586621,304.0,304.0,127.0,0,0.739,672.0,0.0,17
2005,16594622,296.0,302.0,127.0,1,0.686,672.0,0.0,17
2006,16602625,291.0,300.0,126.0,0,0.708,672.0,0.0,17
2007,16610622,282.0,295.0,124.0,0,0.731,672.0,0.0,17
2008,16618621,273.0,290.0,121.0,0,0.753,672.0,0.0,17
2009,16626625,268.0,285.0,117.0,0,0.773,672.0,0.0,17
2010,16634623,260.0,279.0,113.0,0,0.765,672.0,0.0,17
2011,16642625,250.0,272.0,107.0,0,0.803,672.0,0.0,17
2012,16650623,237.0,263.0,101.0,0,0.789,672.0,0.0,17
2013,16658622,229.0,255.0,93.0,0,0.809,672.0,0.0,17
2014,16666625,222.0,247.0,86.0,0,0.772,672.0,0.0,17
2015,16674624,210.0,238.0,78.0,0,0.767,672.0,0.0,17
2016,16682621,203.0,230.0,69.0,0,0.754,672.0,0.0,17
2017,16690625,192.0,220.0,61.0,0,0.711,672.0,0.0,17
2018,16698621,185.0,212.0,52.0,0,0.694,672.0,0.0,17
2019,16706625,178.0,204.0,44.0,0,0.649,672.0,0.0,17
2020,16714625,170.0,195.0,35.0,0,0.631,672.0,0.0,17
2021,16722625,162.0,187.0,27.0,0,0.585,672.0,0.0,17
2022,16730620,162.0,181.0,19.0,0,0.556,672.0,0.0,17
2023,16738623,152.0,174.0,12.0,0,0.513,672.0,0.0,17
2024,16746625,152.0,169.0,5.0,0,0.49,672.0,0.0,17
2025,16754625,152.0,165.0,-1.0,0,0.468,672.0,0.0,17
2026,16762625,150.0,161.0,-7.0,0,0.487,672.0,0.0,17
2027,16770625,151.0,159.0,-11.0,0,0.453,672.0,0.0,17
2028,16778625,146.0,156.0,-15.0,0,0.467,672.0,0.0,17
2029,16786624,146.0,153.0,-19.0,0,0.481,672.0,0.0,17
2030,16794622,147.0,152.0,-22.0,0,0.466,672.0,0.0,17
2031,16802623,147.0,151.0,-24.0,0,0.448,672.0,0.0,17
2032,16810625,144.0,149.0,-26.0,0,0.456,672.0,0.0,17
2033,16818624,140.0,147.0,-28.0,0,0.463,672.0,0.0,17
2034,16826622,144.0,146.0,-29.0,0,0.442,672.0,0.0,17
2035,16834622,136.0,144.0,-31.0,0,0.474,672.0,0.0,17
2036,16842625,141.0,143.0,-33.0,0,0.482,672.0,0.0,17
2037,16850623,139.0,142.0,-34.0,0,0.461,672.0,0.0,17
2038,16858625,140.0,142.0,-35.0,0,0.464,672.0,0.0,17
2039,16866625,136.0,140.0,-36.0,0,0.468,672.0,0.0,17
2040,16874625,132.0,138.0,-37.0,0,0.472,672.0,0.0,17
2041,16882623,132.0,137.0,-38.0,0,0.476,672.0,0.0,17
2042,16890624,132.0,136.0,-39.0,0,0.479,672.0,0.0,17
2043,16898625,127.0,133.0,-41.0,0,0.512,672.0,0.0,17
2044,16906625,132.0,133.0,-41.0,1,0.463,672.0,0.0,17
2045,16914625,127.0,132.0,-42.0,0,0.491,672.0,0.0,17
2046,16922622,131.0,131.0,-43.0,0,0.494,672.0,0.0,17
2047,16930625,127.0,130.0,-44.0,0,0.498,672.0,0.0,17
2048,16938624,123.0,129.0,-45.0,0,0.501,672.0,0.0,17
2049,16946622,123.0,127.0,-46.0,0,0.505,672.0,0.0,17
2050,16954625,120.0,125.0,-47.0,0,0.508,672.0,0.0,17
2051,16962625,120.0,124.0,-48.0,0,0.512,672.0,0.0,17
2052,16970625,121.0,123.0,-49.0,0,0.515,672.0,0.0,17
2053,16978622,121.0,123.0,-50.0,0,0.519,672.0,0.0,17
2054,16986625,120.0,122.0,-50.0,1,0.495,672.0,0.0,17
2055,16994625,120.0,122.0,-51.0,0,0.522,672.0,0.0,17
2056,17002625,120.0,121.0,-51.0,1,0.498,672.0,0.0,17
2057,17010625,117.0,120.0,-51.0,0,0.498,672.0,0.0,17
2058,17018620,121.0,120.0,-52.0,0,0.525,672.0,0.0,17
2059,17026625,122.0,121.0,-51.0,1,0.521,672.0,0.0,17
2060,17034623,120.0,121.0,-51.0,1,0.497,672.0,0.0,17
2061,17042625,123.0,121.0,-51.0,0,0.497,672.0,0.0,17
2062,17050623,121.0,121.0,-51.0,0,0.497,672.0,0.0,17
2063,17058624,120.0,121.0,-50.0,0,0.516,672.0,0.0,17
2064,17066625,124.0,122.0,-50.0,1,0.493,672.0,0.0,17
2065,17074620,124.0,122.0,-49.0,0,0.512,672.0,0.0,17
2066,17082623,124.0,123.0,-49.0,1,0.488,672.0,0.0,17
2067,17090623,126.0,123.0,-48.0,0,0.508,672.0,0.0,17
2068,17098623,127.0,124.0,-47.0,0,0.504,672.0,0.0,17
2069,17106623,131.0,126.0,-46.0,0,0.5,672.0,0.0,17
2070,17114625,127.0,126.0,-45.0,0,0.496,672.0,0.0,17
2071,17122620,133.0,128.0,-44.0,0,0.492,672.0,0.0,17
2072,17130625,135.0,130.0,-42.0,0,0.509,672.0,0.0,17
2073,17138625,136.0,131.0,-41.0,0,0.481,672.0,0.0,17
2074,17146625,137.0,133.0,-39.0,0,0.498,672.0,0.0,17
2075,17154621,136.0,133.0,-38.0,0,0.469,672.0,0.0,17
2076,17162625,139.0,135.0,-36.0,0,0.487,672.0,0.0,17
2077,17170624,143.0,137.0,-34.0,0,0.479,672.0,0.0,17
2078,17178625,142.0,138.0,-33.0,0,0.45,672.0,0.0,17
2079,17186623,140.0,139.0,-31.0,0,0.468,672.0,0.0,17
2080,17194625,142.0,139.0,-30.0,0,0.439,672.0,0.0,17
2081,17202623,140.0,140.0,-29.0,0,0.435,672.0,0.0,17
2082,17210623,143.0,140.0,-28.0,0,0.431,672.0,0.0,17
2083,17218625,150.0,143.0,-27.0,0,0.427,672.0,0.0,17
2084,17226625,153.0,145.0,-25.0,0,0.445,672.0,0.0,17
2085,17234625,161.0,149.0,-23.0,0,0.437,672.0,0.0,17
2086,17242623,169.0,154.0,-19.0,0,0.475,672.0,0.0,17
2087,17250623,179.0,160.0,-15.0,0,0.461,672.0,0.0,17
2088,17258621,190.0,167.0,-11.0,0,0.448,672.0,0.0,17
2089,17266623,204.0,176.0,-4.0,0,0.494,672.0,0.0,17
2090,17274621,219.0,187.0,3.0,0,0.493,672.0,0.0,17
2091,17282625,233.0,198.0,11.0,0,0.538,672.0,0.0,17
2092,17290625,247.0,210.0,20.0,0,0.585,672.0,0.0,17
2093,17298625,260.0,222.0,30.0,0,0.635,672.0,0.0,17
2094,17306620,272.0,234.0,41.0,0,0.686,672.0,0.0,17
2095,17314623,284.0,246.0,52.0,0,0.726,672.0,0.0,17
2096,17322625,289.0,257.0,62.0,0,0.749,672.0,0.0,17
2097,17330623,293.0,265.0,72.0,0,0.781,672.0,0.0,17
2098,17338623,296.0,273.0,81.0,0,0.794,672.0,0.0,17
2099,17346624,298.0,279.0,89.0,0,0.798,672.0,0.0,17
2100,17354622,296.0,283.0,96.0,0,0.796,672.0,0.0,17
2101,17362625,297.0,286.0,101.0,0,0.763,672.0,0.0,17
2102,17370620,295.0,289.0,105.0,0,0.747,672.0,0.0,17
2103,17378625,290.0,289.0,108.0,0,0.727,672.0,0.0,17
2104,17386625,284.0,288.0,110.0,0,0.706,672.0,0.0,17
2105,17394620,276.0,285.0,110.0,1,0.658,672.0,0.0,17
2106,17402625,269.0,281.0,109.0,0,0.68,672.0,0.0,17
2107,17410622,267.0,278.0,107.0,0,0.701,672.0,0.0,17
2108,17418625,255.0,272.0,103.0,0,0.745,672.0,0.0,17
2109,17426624,243.0,265.0,99.0,0,0.737,672.0,0.0,17
2110,17434623,238.0,259.0,94.0,0,0.751,672.0,0.0,17
2111,17442625,228.0,251.0,88.0,0,0.761,672.0,0.0,17
2112,17450625,220.0,244.0,81.0,0,0.764,672.0,0.0,17
2113,17458622,205.0,234.0,74.0,0,0.744,672.0,0.0,17
2114,17466622,201.0,226.0,66.0,0,0.738,672.0,0.0,17
2115,17474625,188.0,217.0,58.0,0,0.712,672.0,0.0,17
2116,17482620,177.0,207.0,49.0,0,0.696,672.0,0.0,17
2117,17490621,173.0,199.0,40.0,0,0.663,672.0,0.0,17
2118,17498622,166.0,191.0,32.0,0,0.617,672.0,0.0,17
2119,17506625,160.0,183.0,24.0,0,0.587,672.0,0.0,17
2120,17514625,158.0,177.0,16.0,0,0.558,672.0,0.0,17
2121,17522625,152.0,171.0,9.0,0,0.515,672.0,0.0,17
2122,17530625,146.0,165.0,2.0,0,0.492,672.0,0.0,17
2123,17538625,148.0,161.0,-4.0,0,0.468,672.0,0.0,17
2124,17546625,147.0,158.0,-9.0,0,0.462,672.0,0.0,17
2125,17554625,144.0,154.0,-14.0,0,0.479,672.0,0.0,17
2126,17562620,144.0,152.0,-18.0,0,0.468,672.0,0.0,17
2127,17570625,140.0,149.0,-21.0,0,0.453,672.0,0.0,17
2128,17578622,140.0,147.0,-24.0,0,0.464,672.0,0.0,17
2129,17586623,140.0,145.0,-27.0,0,0.475,672.0,0.0,17
2130,17594624,139.0,144.0,-29.0,0,0.457,672.0,0.0,17
2131,17602623,140.0,143.0,-31.0,0,0.465,672.0,0.0,17
2132,17610624,138.0,142.0,-33.0,0,0.472,672.0,0.0,17
2133,17618623,136.0,140.0,-34.0,0,0.451,672.0,0.0,17
2134,17626625,141.0,140.0,-35.0,0,0.455,672.0,0.0,17
2135,17634625,139.0,140.0,-35.0,1,0.431,672.0,0.0,17
2136,17642620,140.0,140.0,-36.0,0,0.459,672.0,0.0,17
2137,17650625,138.0,140.0,-36.0,1,0.435,672.0,0.0,17
2138,17658620,140.0,140.0,-36.0,0,0.435,672.0,0.0,17
2139,17666625,139.0,140.0,-36.0,0,0.436,672.0,0.0,17
2140,17674625,139.0,139.0,-37.0,0,0.463,672.0,0.0,17
2141,17682625,139.0,139.0,-37.0,1,0.44,672.0,0.0,17
2142,17690625,138.0,139.0,-37.0,0,0.44,672.0,0.0,17
2143,17698625,140.0,139.0,-36.0,0,0.46,672.0,0.0,17
2144,17706625,139.0,139.0,-36.0,1,0.436,672.0,0.0,17
2145,17714625,137.0,139.0,-36.0,0,0.436,672.0,0.0,17
2146,17722625,136.0,138.0,-36.0,0,0.437,672.0,0.0,17
2147,17730623,136.0,138.0,-36.0,0,0.437,672.0,0.0,17
2148,17738621,127.0,135.0,-37.0,0,0.464,672.0,0.0,17
2149,17746625,125.0,133.0,-38.0,0,0.468,672.0,0.0,17
2150,17754620,122.0,130.0,-40.0,0,0.501,672.0,0.0,17
2151,17762625,125.0,129.0,-41.0,0,0.48,672.0,0.0,17
2152,17770623,123.0,127.0,-42.0,0,0.483,672.0,0.0,17
2153,17778625,119.0,125.0,-44.0,0,0.516,672.0,0.0,17
2154,17786620,117.0,123.0,-45.0,0,0.495,672.0,0.0,17
2155,17794625,119.0,122.0,-46.0,0,0.498,672.0,0.0,17
2156,17802625,119.0,121.0,-48.0,0,0.531,672.0,0.0,17
2157,17810625,121.0,121.0,-48.0,1,0.482,672.0,0.0,17
2158,17818622,120.0,121.0,-49.0,0,0.509,672.0,0.0,17
2159,17826625,115.0,120.0,-49.0,1,0.486,672.0,0.0,17
2160,17834621,111.0,117.0,-50.0,0,0.513,672.0,0.0,17
2161,17842625,116.0,117.0,-51.0,0,0.516,672.0,0.0,17
2162,17850623,113.0,116.0,-52.0,0,0.52,672.0,0.0,17
2163,17858625,112.0,115.0,-52.0,1,0.496,672.0,0.0,17
2164,17866625,112.0,114.0,-53.0,0,0.523,672.0,0.0,17
2165,17874621,115.0,115.0,-53.0,1,0.499,672.0,0.0,17
2166,17882625,112.0,114.0,-53.0,0,0.499,672.0,0.0,17
2167,17890624,110.0,113.0,-54.0,0,0.526,672.0,0.0,17
2168,17898624,112.0,113.0,-54.0,1,0.502,672.0,0.0,17
2169,17906625,112.0,113.0,-54.0,0,0.502,672.0,0.0,17
2170,17914625,112.0,112.0,-54.0,0,0.501,672.0,0.0,17
2171,17922623,114.0,113.0,-54.0,0,0.501,672.0,0.0,17
2172,17930625,119.0,114.0,-53.0,0,0.521,672.0,0.0,17
2173,17938625,118.0,115.0,-52.0,0,0.517,672.0,0.0,17
2174,17946625,124.0,117.0,-51.0,0,0.513,672.0,0.0,17
2175,17954625,124.0,119.0,-50.0,0,0.509,672.0,0.0,17
2176,17962623,127.0,121.0,-48.0,0,0.527,672.0,0.0,17
2177,17970625,127.0,122.0,-46.0,0,0.519,672.0,0.0,17
2178,17978625,130.0,124.0,-44.0,0,0.511,672.0,0.0,17
2179,17986623,134.0,127.0,-42.0,0,0.504,672.0,0.0,17
2180,17994625,140.0,130.0,-40.0,0,0.496,672.0,0.0,17
2181,18002620,136.0,131.0,-38.0,0,0.489,672.0,0.0,17
2182,18010625,140.0,133.0,-35.0,0,0.503,672.0,0.0,17
2183,18018625,145.0,136.0,-33.0,0,0.47,672.0,0.0,17
2184,18026625,141.0,137.0,-31.0,0,0.462,672.0,0.0,17
2185,18034625,150.0,140.0,-28.0,0,0.477,672.0,0.0,17
2186,18042623,151.0,143.0,-26.0,0,0.444,672.0,0.0,17
2187,18050625,156.0,146.0,-23.0,0,0.459,672.0,0.0,17
2188,18058625,154.0,148.0,-21.0,0,0.426,672.0,0.0,17
2189,18066622,158.0,150.0,-18.0,0,0.441,672.0,0.0,17
2190,18074621,158.0,152.0,-16.0,0,0.408,672.0,0.0,17
2191,18082624,160.0,154.0,-14.0,0,0.401,672.0,0.0,17
2192,18090625,161.0,156.0,-11.0,0,0.417,672.0,0.0,17
2193,18098625,158.0,156.0,-10.0,0,0.362,672.0,0.0,17
2194,18106623,159.0,157.0,-8.0,0,0.381,672.0,0.0,17
2195,18114625,158.0,157.0,-7.0,0,0.352,672.0,0.0,17
2196,18122622,162.0,158.0,-6.0,0,0.348,672.0,0.0,17
2197,18130625,163.0,160.0,-5.0,0,0.345,672.0,0.0,17
2198,18138625,164.0,161.0,-4.0,0,0.341,672.0,0.0,17
2199,18146621,168.0,162.0,-3.0,0,0.337,672.0,0.0,17
2200,18154620,179.0,166.0,-1.0,0,0.371,672.0,0.0,17
2201,18162623,188.0,172.0,2.0,0,0.41,672.0,0.0,17
2202,18170625,198.0,178.0,6.0,0,0.453,672.0,0.0,17
2203,18178625,212.0,186.0,11.0,0,0.499,672.0,0.0,17
2204,18186621,228.0,196.0,18.0,0,0.571,672.0,0.0,17
2205,18194623,242.0,207.0,25.0,0,0.6,672.0,0.0,17
2206,18202625,260.0,220.0,34.0,0,0.669,672.0,0.0,17
2207,18210624,272.0,233.0,44.0,0,0.722,672.0,0.0,17
2208,18218625,292.0,247.0,55.0,0,0.773,672.0,0.0,17
2209,18226621,308.0,262.0,67.0,0,0.821,672.0,0.0,17
2210,18234625,318.0,275.0,79.0,0,0.855,672.0,0.0,17
2211,18242625,338.0,291.0,92.0,0,0.891,672.0,0.0,17
2212,18250625,346.0,304.0,105.0,0,0.913,672.0,0.0,17
2213,18258621,351.0,315.0,117.0,0,0.921,672.0,0.0,17
2214,18266625,361.0,326.0,128.0,0,0.923,672.0,0.0,17
2215,18274622,364.0,336.0,139.0,0,0.93,672.0,0.0,17
2216,18282625,357.0,341.0,148.0,0,0.911,672.0,0.0,17
2217,18290621,361.0,346.0,155.0,0,0.88,672.0,0.0,17
2218,18298625,356.0,348.0,160.0,0,0.838,672.0,0.0,17
2219,18306625,347.0,348.0,164.0,0,0.815,672.0,0.0,17
2220,18314625,342.0,346.0,166.0,0,0.763,672.0,0.0,17
2221,18322620,335.0,344.0,166.0,1,0.712,672.0,0.0,17
2222,18330625,324.0,339.0,164.0,0,0.76,672.0,0.0,17
2223,18338620,321.0,335.0,162.0,0,0.758,672.0,0.0,17
2224,18346625,309.0,328.0,158.0,0,0.808,672.0,0.0,17
2225,18354625,297.0,321.0,153.0,0,0.829,672.0,0.0,17
2226,18362623,287.0,313.0,146.0,0,0.866,672.0,0.0,17
2227,18370625,275.0,303.0,139.0,0,0.858,672.0,0.0,17
2228,18378624,260.0,293.0,130.0,0,0.879,672.0,0.0,17
2229,18386625,247.0,282.0,121.0,0,0.864,672.0,0.0,17
2230,18394622,232.0,270.0,111.0,0,0.858,672.0,0.0,17
2231,18402625,218.0,257.0,99.0,0,0.851,672.0,0.0,17
2232,18410625,212.0,246.0,88.0,0,0.814,672.0,0.0,17
2233,18418625,197.0,234.0,77.0,0,0.782,672.0,0.0,17
2234,18426625,188.0,223.0,65.0,0,0.753,672.0,0.0,17
2235,18434625,173.0,211.0,54.0,0,0.706,672.0,0.0,17
2236,18442622,166.0,200.0,42.0,0,0.673,672.0,0.0,17
2237,18450625,160.0,190.0,31.0,0,0.625,672.0,0.0,17
2238,18458625,156.0,182.0,21.0,0,0.579,672.0,0.0,17
2239,18466622,150.0,174.0,11.0,0,0.546,672.0,0.0,17
2240,18474625,148.0,168.0,3.0,0,0.492,672.0,0.0,17
2241,18482625,148.0,163.0,-5.0,0,0.516,672.0,0.0,17
2242,18490625,145.0,159.0,-11.0,0,0.496,672.0,0.0,17
2243,18498621,142.0,155.0,-17.0,0,0.516,672.0,0.0,17
2244,18506625,140.0,151.0,-22.0,0,0.51,672.0,0.0,17
2245,18514625,136.0,147.0,-27.0,0,0.527,672.0,0.0,17
2246,18522625,140.0,146.0,-30.0,0,0.49,672.0,0.0,17
2247,18530623,140.0,144.0,-33.0,0,0.501,672.0,0.0,17
2248,18538625,137.0,143.0,-36.0,0,0.511,672.0,0.0,17
2249,18546622,138.0,141.0,-38.0,0,0.494,672.0,0.0,17
2250,18554625,136.0,140.0,-40.0,0,0.501,672.0,0.0,17
2251,18562624,133.0,138.0,-41.0,0,0.481,672.0,0.0,17
2252,18570624,125.0,135.0,-43.0,0,0.512,672.0,0.0,17
2253,18578625,123.0,132.0,-45.0,0,0.519,672.0,0.0,17
2254,18586625,122.0,130.0,-48.0,0,0.553,672.0,0.0,17
2255,18594625,118.0,127.0,-50.0,0,0.535,672.0,0.0,17
2256,18602623,116.0,124.0,-52.0,0,0.542,672.0,0.0,17
2257,18610625,113.0,122.0,-54.0,0,0.549,672.0,0.0,17
2258,18618625,110.0,119.0,-57.0,0,0.582,672.0,0.0,17
2259,18626625,108.0,116.0,-59.0,0,0.565,672.0,0.0,17
2260,18634623,108.0,114.0,-61.0,0,0.571,672.0,0.0,17
2261,18642625,108.0,113.0,-63.0,0,0.577,672.0,0.0,17
2262,18650625,106.0,111.0,-64.0,0,0.556,672.0,0.0,17
2263,18658625,107.0,110.0,-66.0,0,0.585,672.0,0.0,17
2264,18666624,107.0,109.0,-67.0,0,0.565,672.0,0.0,17
2265,18674625,105.0,108.0,-68.0,0,0.567,672.0,0.0,17
2266,18682625,107.0,108.0,-68.0,1,0.545,672.0,0.0,17
2267,18690625,107.0,108.0,-68.0,0,0.545,672.0,0.0,17
2268,18698625,108.0,108.0,-69.0,0,0.569,672.0,0.0,17
2269,18706625,108.0,108.0,-68.0,1,0.566,672.0,0.0,17
2270,18714625,106.0,107.0,-68.0,1,0.543,672.0,0.0,17
2271,18722623,104.0,107.0,-68.0,0,0.543,672.0,0.0,17
2272,18730622,100.0,105.0,-69.0,0,0.567,672.0,0.0,17
2273,18738622,103.0,105.0,-69.0,1,0.545,672.0,0.0,17
2274,18746625,101.0,104.0,-69.0,0,0.544,672.0,0.0,17
2275,18754625,98.0,102.0,-70.0,0,0.569,672.0,0.0,17
2276,18762620,101.0,102.0,-70.0,1,0.546,672.0,0.0,17
2277,18770620,98.0,101.0,-71.0,0,0.57,672.0,0.0,17
2278,18778621,96.0,100.0,-71.0,1,0.548,672.0,0.0,17
2279,18786625,95.0,99.0,-72.0,0,0.572,672.0,0.0,17
2280,18794621,96.0,98.0,-72.0,1,0.549,672.0,0.0,17
2281,18802625,96.0,98.0,-72.0,0,0.548,672.0,0.0,17
2282,18810620,97.0,97.0,-72.0,0,0.548,672.0,0.0,17
2283,18818623,97.0,97.0,-72.0,0,0.547,672.0,0.0,17
2284,18826625,96.0,97.0,-72.0,0,0.546,672.0,0.0,17
2285,18834625,91.0,96.0,-72.0,0,0.545,672.0,0.0,17
2286,18842624,92.0,95.0,-73.0,0,0.57,672.0,0.0,17
2287,18850625,91.0,94.0,-73.0,1,0.547,672.0,0.0,17
2288,18858625,91.0,93.0,-73.0,0,0.546,672.0,0.0,17
2289,18866620,98.0,94.0,-73.0,0,0.545,672.0,0.0,17
2290,18874621,100.0,96.0,-72.0,0,0.564,672.0,0.0,17
2291,18882625,105.0,98.0,-71.0,0,0.56,672.0,0.0,17
2292,18890621,108.0,100.0,-69.0,0,0.577,672.0,0.0,17
2293,18898625,112.0,103.0,-67.0,0,0.57,672.0,0.0,17
2294,18906625,120.0,107.0,-64.0,0,0.584,672.0,0.0,17
2295,18914623,124.0,111.0,-61.0,0,0.575,672.0,0.0,17
2296,18922622,132.0,116.0,-57.0,0,0.586,672.0,0.0,17
2297,18930625,138.0,122.0,-53.0,0,0.572,672.0,0.0,17
2298,18938625,144.0,127.0,-48.0,0,0.579,672.0,0.0,17
2299,18946625,146.0,132.0,-43.0,0,0.562,672.0,0.0,17
2300,18954625,151.0,136.0,-39.0,0,0.525,672.0,0.0,17
2301,18962622,152.0,140.0,-34.0,0,0.532,672.0,0.0,17
2302,18970623,154.0,143.0,-30.0,0,0.496,672.0,0.0,17
2303,18978623,157.0,147.0,-26.0,0,0.482,672.0,0.0,17
2304,18986625,160.0,150.0,-22.0,0,0.47,672.0,0.0,17
2305,18994625,163.0,153.0,-18.0,0,0.457,672.0,0.0,17
2306,19002621,164.0,156.0,-15.0,0,0.424,672.0,0.0,17
2307,19010625,165.0,158.0,-12.0,0,0.415,672.0,0.0,17
2308,19018624,166.0,160.0,-9.0,0,0.406,672.0,0.0,17
2309,19026625,169.0,162.0,-7.0,0,0.376,672.0,0.0,17
2310,19034625,172.0,165.0,-4.0,0,0.391,672.0,0.0,17
2311,19042622,180.0,168.0,-1.0,0,0.383,672.0,0.0,17
2312,19050625,188.0,173.0,2.0,0,0.388,672.0,0.0,17
2313,19058625,200.0,180.0,6.0,0,0.424,672.0,0.0,17
2314,19066624,211.0,187.0,12.0,0,0.489,672.0,0.0,17
2315,19074625,222.0,196.0,18.0,0,0.508,672.0,0.0,17
2316,19082625,240.0,206.0,25.0,0,0.552,672.0,0.0,17
2317,19090625,253.0,218.0,33.0,0,0.598,672.0,0.0,17
2318,19098625,271.0,231.0,43.0,0,0.661,672.0,0.0,17
2319,19106625,280.0,243.0,53.0,0,0.694,672.0,0.0,17
2320,19114625,287.0,253.0,63.0,0,0.726,672.0,0.0,17
2321,19122625,299.0,264.0,73.0,0,0.756,672.0,0.0,17
2322,19130625,307.0,275.0,83.0,0,0.784,672.0,0.0,17
2323,19138625,313.0,284.0,93.0,0,0.808,672.0,0.0,17
2324,19146625,320.0,293.0,102.0,0,0.814,672.0,0.0,17
2325,19154625,319.0,299.0,110.0,0,0.813,672.0,0.0,17
2326,19162625,320.0,304.0,117.0,0,0.807,672.0,0.0,17
2327,19170623,316.0,307.0,122.0,0,0.772,672.0,0.0,17
2328,19178625,309.0,308.0,126.0,0,0.754,672.0,0.0,17
2329,19186625,310.0,308.0,129.0,0,0.734,672.0,0.0,17
2330,19194623,301.0,306.0,130.0,0,0.689,672.0,0.0,17
2331,19202625,293.0,303.0,130.0,1,0.666,672.0,0.0,17
2332,19210623,284.0,299.0,128.0,0,0.708,672.0,0.0,17
2333,19218622,275.0,293.0,125.0,0,0.728,672.0,0.0,17
2334,19226625,265.0,286.0,120.0,0,0.767,672.0,0.0,17
2335,19234625,255.0,279.0,115.0,0,0.759,672.0,0.0,17
2336,19242625,243.0,270.0,108.0,0,0.788,672.0,0.0,17
2337,19250625,232.0,261.0,101.0,0,0.774,672.0,0.0,17
2338,19258623,223.0,252.0,93.0,0,0.774,672.0,0.0,17
2339,19266621,212.0,242.0,84.0,0,0.767,672.0,0.0,17
2340,19274623,201.0,232.0,75.0,0,0.742,672.0,0.0,17
2341,19282623,193.0,223.0,66.0,0,0.716,672.0,0.0,17
2342,19290625,184.0,213.0,56.0,0,0.698,672.0,0.0,17
2343,19298625,178.0,205.0,47.0,0,0.655,672.0,0.0,17
2344,19306621,165.0,195.0,38.0,0,0.625,672.0,0.0,17
2345,19314625,158.0,186.0,29.0,0,0.595,672.0,0.0,17
2346,19322625,151.0,178.0,20.0,0,0.566,672.0,0.0,17
2347,19330625,143.0,169.0,11.0,0,0.537,672.0,0.0,17
2348,19338620,143.0,163.0,3.0,0,0.497,672.0,0.0,17
2349,19346625,138.0,157.0,-5.0,0,0.5,672.0,0.0,17
2350,19354625,127.0,150.0,-12.0,0,0.502,672.0,0.0,17
2351,19362622,127.0,144.0,-19.0,0,0.523,672.0,0.0,17
2352,19370623,125.0,139.0,-25.0,0,0.522,672.0,0.0,17
2353,19378624,127.0,136.0,-30.0,0,0.516,672.0,0.0,17
2354,19386625,124.0,133.0,-34.0,0,0.506,672.0,0.0,17
2355,19394625,123.0,131.0,-38.0,0,0.519,672.0,0.0,17
2356,19402623,124.0,129.0,-41.0,0,0.505,672.0,0.0,17
2357,19410622,121.0,127.0,-44.0,0,0.515,672.0,0.0,17
2358,19418625,123.0,126.0,-46.0,0,0.498,672.0,0.0,17
2359,19426624,121.0,125.0,-48.0,0,0.504,672.0,0.0,17
2360,19434625,124.0,125.0,-49.0,0,0.484,672.0,0.0,17
2361,19442625,125.0,125.0,-50.0,0,0.487,672.0,0.0,17
2362,19450625,125.0,125.0,-50.0,1,0.466,672.0,0.0,17
2363,19458620,123.0,124.0,-51.0,0,0.49,672.0,0.0,17
2364,19466625,120.0,123.0,-51.0,1,0.468,672.0,0.0,17
2365,19474625,122.0,123.0,-51.0,0,0.468,672.0,0.0,17
2366,19482623,123.0,123.0,-51.0,0,0.468,672.0,0.0,17
2367,19490623,122.0,123.0,-52.0,0,0.493,672.0,0.0,17
2368,19498625,121.0,122.0,-52.0,1,0.471,672.0,0.0,17
2369,19506623,122.0,122.0,-52.0,0,0.471,672.0,0.0,17
2370,19514625,123.0,122.0,-51.0,0,0.489,672.0,0.0,17
2371,19522621,123.0,123.0,-51.0,1,0.468,672.0,0.0,17
2372,19530623,121.0,122.0,-51.0,0,0.468,672.0,0.0,17
2373,19538625,123.0,122.0,-51.0,0,0.468,672.0,0.0,17
2374,19546622,123.0,123.0,-50.0,0,0.486,672.0,0.0,17
2375,19554625,123.0,123.0,-50.0,1,0.464,672.0,0.0,17
2376,19562623,122.0,122.0,-50.0,0,0.464,672.0,0.0,17
2377,19570625,124.0,123.0,-49.0,0,0.483,672.0,0.0,17
2378,19578624,118.0,122.0,-49.0,1,0.461,672.0,0.0,17
2379,19586624,122.0,122.0,-49.0,0,0.461,672.0,0.0,17
2380,19594625,124.0,122.0,-49.0,0,0.461,672.0,0.0,17
2381,19602620,120.0,122.0,-49.0,0,0.461,672.0,0.0,17
2382,19610625,122.0,122.0,-48.0,0,0.48,672.0,0.0,17
2383,19618621,124.0,122.0,-48.0,1,0.458,672.0,0.0,17
2384,19626625,120.0,122.0,-48.0,0,0.458,672.0,0.0,17
2385,19634624,118.0,121.0,-48.0,0,0.458,672.0,0.0,17
2386,19642624,120.0,121.0,-48.0,0,0.458,672.0,0.0,17
2387,19650621,116.0,120.0,-48.0,0,0.458,672.0,0.0,17
2388,19658625,117.0,119.0,-48.0,0,0.458,672.0,0.0,17
2389,19666625,116.0,118.0,-48.0,0,0.458,672.0,0.0,17
2390,19674621,112.0,117.0,-49.0,0,0.483,672.0,0.0,17
2391,19682625,114.0,116.0,-49.0,1,0.461,672.0,0.0,17
2392,19690625,116.0,116.0,-50.0,0,0.486,672.0,0.0,17
2393,19698620,115.0,116.0,-50.0,1,0.464,672.0,0.0,17
2394,19706624,116.0,116.0,-50.0,0,0.464,672.0,0.0,17
2395,19714625,116.0,116.0,-50.0,0,0.464,672.0,0.0,17
2396,19722625,114.0,115.0,-50.0,0,0.464,672.0,0.0,17
2397,19730625,117.0,116.0,-49.0,0,0.482,672.0,0.0,17
2398,19738623,119.0,117.0,-49.0,1,0.46,672.0,0.0,17
2399,19746623,115.0,116.0,-49.0,0,0.46,672.0,0.0,17
2400,19754625,117.0,116.0,-48.0,0,0.478,672.0,0.0,17
2401,19762624,119.0,117.0,-48.0,1,0.456,672.0,0.0,17
2402,19770622,120.0,118.0,-47.0,0,0.474,672.0,0.0,17
2403,19778625,119.0,118.0,-46.0,0,0.471,672.0,0.0,17
2404,19786625,122.0,119.0,-45.0,0,0.467,672.0,0.0,17
2405,19794623,120.0,119.0,-45.0,1,0.446,672.0,0.0,17
2406,19802625,117.0,119.0,-44.0,0,0.464,672.0,0.0,17
2407,19810624,119.0,119.0,-44.0,1,0.442,672.0,0.0,17
2408,19818623,118.0,119.0,-44.0,0,0.441,672.0,0.0,17
2409,19826625,119.0,119.0,-43.0,0,0.459,672.0,0.0,17
2410,19834625,120.0,119.0,-43.0,1,0.437,672.0,0.0,17
2411,19842625,121.0,119.0,-42.0,0,0.455,672.0,0.0,17
2412,19850625,127.0,121.0,-41.0,0,0.452,672.0,0.0,17
2413,19858625,132.0,124.0,-40.0,0,0.448,672.0,0.0,17
2414,19866625,143.0,129.0,-37.0,0,0.485,672.0,0.0,17
2415,19874625,148.0,133.0,-34.0,0,0.475,672.0,0.0,17
2416,19882625,156.0,139.0,-30.0,0,0.487,672.0,0.0,17
2417,19890621,174.0,147.0,-25.0,0,0.494,672.0,0.0,17
2418,19898625,189.0,157.0,-18.0,0,0.516,672.0,0.0,17
2419,19906620,200.0,168.0,-11.0,0,0.495,672.0,0.0,17
2420,19914625,217.0,180.0,-2.0,0,0.515,672.0,0.0,17
2421,19922625,235.0,193.0,8.0,0,0.558,672.0,0.0,17
2422,19930625,248.0,206.0,19.0,0,0.604,672.0,0.0,17
2423,19938625,260.0,219.0,30.0,0,0.641,672.0,0.0,17
2424,19946625,273.0,232.0,42.0,0,0.69,672.0,0.0,17
2425,19954625,277.0,243.0,53.0,0,0.716,672.0,0.0,17
2426,19962623,288.0,254.0,64.0,0,0.75,672.0,0.0,17
2427,19970625,295.0,264.0,75.0,0,0.781,672.0,0.0,17
2428,19978622,301.0,273.0,85.0,0,0.795,672.0,0.0,17
2429,19986625,304.0,280.0,94.0,0,0.801,672.0,0.0,17
2430,19994621,306.0,287.0,102.0,0,0.8,672.0,0.0,17
2431,20002622,306.0,291.0,109.0,0,0.795,672.0,0.0,17
2432,20010625,306.0,295.0,114.0,0,0.761,672.0,0.0,17
2433,20018623,292.0,294.0,118.0,0,0.744,672.0,0.0,17
2434,20026625,291.0,293.0,120.0,0,0.7,672.0,0.0,17
2435,20034621,284.0,291.0,120.0,1,0.655,672.0,0.0,17
2436,20042625,276.0,287.0,120.0,0,0.654,672.0,0.0,17
2437,20050621,267.0,283.0,117.0,0,0.716,672.0,0.0,17
2438,20058625,252.0,275.0,113.0,0,0.732,672.0,0.0,17
2439,20066625,246.0,268.0,108.0,0,0.745,672.0,0.0,17
2440,20074625,236.0,260.0,102.0,0,0.755,672.0,0.0,17
2441,20082625,226.0,252.0,96.0,0,0.741,672.0,0.0,17
2442,20090622,216.0,243.0,88.0,0,0.76,672.0,0.0,17
2443,20098625,208.0,235.0,80.0,0,0.739,672.0,0.0,17
2444,20106621,193.0,225.0,72.0,0,0.716,672.0,0.0,17
2445,20114625,187.0,215.0,63.0,0,0.705,672.0,0.0,17
2446,20122620,180.0,207.0,54.0,0,0.676,672.0,0.0,17
2447,20130621,170.0,198.0,45.0,0,0.646,672.0,0.0,17
2448,20138623,164.0,190.0,36.0,0,0.617,672.0,0.0,17
2449,20146625,160.0,183.0,28.0,0,0.574,672.0,0.0,17
2450,20154623,156.0,176.0,20.0,0,0.548,672.0,0.0,17
2451,20162625,153.0,170.0,13.0,0,0.508,672.0,0.0,17
2452,20170620,146.0,165.0,6.0,0,0.487,672.0,0.0,17
2453,20178621,144.0,160.0,0.0,0,0.45,672.0,0.0,17
2454,20186625,144.0,156.0,-5.0,0,0.433,672.0,0.0,17
2455,20194623,143.0,153.0,-10.0,0,0.447,672.0,0.0,17
2456,20202625,140.0,150.0,-14.0,0,0.436,672.0,0.0,17
2457,20210625,139.0,147.0,-18.0,0,0.448,672.0,0.0,17
2458,20218625,137.0,145.0,-21.0,0,0.435,672.0,0.0,17
2459,20226623,139.0,143.0,-24.0,0,0.444,672.0,0.0,17
2460,20234625,139.0,142.0,-26.0,0,0.427,672.0,0.0,17
2461,20242620,138.0,141.0,-28.0,0,0.434,672.0,0.0,17
2462,20250625,136.0,140.0,-30.0,0,0.44,672.0,0.0,17
2463,20258625,132.0,138.0,-31.0,0,0.421,672.0,0.0,17
2464,20266623,127.0,135.0,-33.0,0,0.45,672.0,0.0,17
2465,20274623,132.0,135.0,-34.0,0,0.431,672.0,0.0,17
2466,20282625,133.0,134.0,-35.0,0,0.434,672.0,0.0,17
2467,20290625,130.0,133.0,-36.0,0,0.437,672.0,0.0,17
2468,20298625,127.0,132.0,-38.0,0,0.466,672.0,0.0,17
2469,20306625,126.0,130.0,-39.0,0,0.447,672.0,0.0,17
2470,20314623,127.0,129.0,-40.0,0,0.45,672.0,0.0,17
2471,20322625,124.0,128.0,-40.0,1,0.429,672.0,0.0,17
2472,20330621,127.0,128.0,-41.0,0,0.453,672.0,0.0,17
2473,20338625,122.0,126.0,-42.0,0,0.456,672.0,0.0,17
2474,20346625,124.0,126.0,-43.0,0,0.459,672.0,0.0,17
2475,20354625,124.0,125.0,-43.0,1,0.439,672.0,0.0,17
2476,20362624,124.0,125.0,-43.0,0,0.439,672.0,0.0,17
2477,20370625,120.0,124.0,-44.0,0,0.463,672.0,0.0,17
2478,20378624,124.0,124.0,-44.0,1,0.442,672.0,0.0,17
2479,20386625,121.0,123.0,-45.0,0,0.466,672.0,0.0,17
2480,20394625,123.0,123.0,-45.0,1,0.445,672.0,0.0,17
2481,20402620,116.0,121.0,-45.0,0,0.445,672.0,0.0,17
2482,20410625,122.0,122.0,-46.0,0,0.469,672.0,0.0,17
2483,20418623,120.0,121.0,-46.0,1,0.449,672.0,0.0,17
2484,20426625,122.0,121.0,-46.0,0,0.449,672.0,0.0,17
2485,20434625,119.0,121.0,-46.0,0,0.449,672.0,0.0,17
2486,20442621,122.0,121.0,-46.0,0,0.449,672.0,0.0,17
2487,20450625,119.0,121.0,-46.0,0,0.449,672.0,0.0,17
2488,20458625,118.0,120.0,-46.0,0,0.449,672.0,0.0,17
2489,20466625,123.0,121.0,-45.0,0,0.467,672.0,0.0,17
2490,20474623,117.0,120.0,-45.0,1,0.446,672.0,0.0,17
2491,20482625,120.0,120.0,-45.0,0,0.446,672.0,0.0,17
2492,20490625,123.0,121.0,-45.0,0,0.446,672.0,0.0,17
2493,20498622,122.0,121.0,-45.0,0,0.447,672.0,0.0,17
2494,20506625,124.0,122.0,-44.0,0,0.464,672.0,0.0,17
2495,20514625,122.0,122.0,-43.0,0,0.461,672.0,0.0,17
2496,20522621,123.0,122.0,-43.0,1,0.441,672.0,0.0,17
2497,20530624,123.0,122.0,-42.0,0,0.458,672.0,0.0,17
2498,20538625,124.0,123.0,-42.0,1,0.437,672.0,0.0,17
2499,20546625,124.0,123.0,-41.0,0,0.455,672.0,0.0,17
2500,20554621,124.0,123.0,-41.0,1,0.434,672.0,0.0,17
2501,20562622,127.0,124.0,-40.0,0,0.452,672.0,0.0,17
2502,20570625,123.0,124.0,-39.0,0,0.449,672.0,0.0,17
2503,20578621,124.0,124.0,-39.0,1,0.428,672.0,0.0,17
2504,20586624,124.0,124.0,-39.0,0,0.428,672.0,0.0,17
2505,20594623,127.0,125.0,-38.0,0,0.445,672.0,0.0,17
2506,20602621,130.0,126.0,-37.0,0,0.442,672.0,0.0,17
2507,20610623,131.0,127.0,-36.0,0,0.439,672.0,0.0,17
2508,20618624,127.0,127.0,-35.0,0,0.435,672.0,0.0,17
2509,20626625,132.0,128.0,-34.0,0,0.432,672.0,0.0,17
2510,20634624,133.0,129.0,-33.0,0,0.429,672.0,0.0,17
2511,20642624,134.0,131.0,-32.0,0,0.425,672.0,0.0,17
2512,20650625,132.0,131.0,-31.0,0,0.422,672.0,0.0,17
2513,20658623,133.0,131.0,-30.0,0,0.419,672.0,0.0,17
2514,20666620,134.0,132.0,-29.0,0,0.415,672.0,0.0,17
2515,20674625,136.0,133.0,-29.0,1,0.394,672.0,0.0,17
2516,20682625,138.0,134.0,-27.0,0,0.431,672.0,0.0,17
2517,20690625,142.0,136.0,-26.0,0,0.405,672.0,0.0,17
2518,20698621,142.0,138.0,-25.0,0,0.402,672.0,0.0,17
2519,20706625,143.0,139.0,-23.0,0,0.418,672.0,0.0,17
2520,20714621,142.0,140.0,-22.0,0,0.392,672.0,0.0,17
2521,20722625,144.0,141.0,-21.0,0,0.389,672.0,0.0,17
2522,20730621,144.0,141.0,-20.0,0,0.386,672.0,0.0,17
2523,20738625,151.0,144.0,-18.0,0,0.402,672.0,0.0,17
2524,20746625,156.0,147.0,-16.0,0,0.396,672.0,0.0,17
2525,20754622,160.0,150.0,-14.0,0,0.39,672.0,0.0,17
2526,20762625,175.0,156.0,-10.0,0,0.424,672.0,0.0,17
2527,20770625,184.0,163.0,-6.0,0,0.413,672.0,0.0,17
2528,20778625,196.0,171.0,-1.0,0,0.429,672.0,0.0,17
2529,20786625,215.0,182.0,6.0,0,0.491,672.0,0.0,17
2530,20794625,235.0,195.0,15.0,0,0.554,672.0,0.0,17
2531,20802625,251.0,208.0,25.0,0,0.6,672.0,0.0,17
2532,20810621,272.0,224.0,36.0,0,0.648,672.0,0.0,17
2533,20818625,289.0,240.0,48.0,0,0.698,672.0,0.0,17
2534,20826622,306.0,256.0,62.0,0,0.757,672.0,0.0,17
2535,20834625,320.0,271.0,76.0,0,0.798,672.0,0.0,17
2536,20842625,330.0,285.0,89.0,0,0.826,672.0,0.0,17
2537,20850621,336.0,298.0,102.0,0,0.855,672.0,0.0,17
2538,20858624,347.0,310.0,115.0,0,0.879,672.0,0.0,17
2539,20866625,356.0,321.0,127.0,0,0.888,672.0,0.0,17
2540,20874622,361.0,331.0,137.0,0,0.878,672.0,0.0,17
2541,20882625,353.0,336.0,146.0,0,0.873,672.0,0.0,17
2542,20890625,353.0,340.0,154.0,0,0.864,672.0,0.0,17
2543,20898625,352.0,343.0,159.0,0,0.808,672.0,0.0,17
2544,20906625,346.0,344.0,163.0,0,0.788,672.0,0.0,17
2545,20914625,342.0,343.0,166.0,0,0.768,672.0,0.0,17
2546,20922621,336.0,342.0,167.0,0,0.723,672.0,0.0,17
2547,20930625,323.0,337.0,166.0,1,0.722,672.0,0.0,17
2548,20938625,316.0,332.0,163.0,0,0.765,672.0,0.0,17
2549,20946625,305.0,325.0,159.0,0,0.785,672.0,0.0,17
2550,20954625,295.0,318.0,154.0,0,0.803,672.0,0.0,17
2551,20962625,287.0,311.0,148.0,0,0.819,672.0,0.0,17
2552,20970622,275.0,302.0,141.0,0,0.832,672.0,0.0,17
2553,20978625,262.0,292.0,133.0,0,0.841,672.0,0.0,17
2554,20986623,253.0,283.0,124.0,0,0.844,672.0,0.0,17
2555,20994625,238.0,272.0,115.0,0,0.83,672.0,0.0,17
2556,21002622,228.0,261.0,105.0,0,0.825,672.0,0.0,17
2557,21010625,219.0,251.0,95.0,0,0.803,672.0,0.0,17
2558,21018625,207.0,240.0,84.0,0,0.788,672.0,0.0,17
2559,21026625,196.0,230.0,74.0,0,0.749,672.0,0.0,17
2560,21034622,188.0,220.0,63.0,0,0.728,672.0,0.0,17
2561,21042625,182.0,210.0,53.0,0,0.685,672.0,0.0,17
2562,21050622,172.0,201.0,43.0,0,0.652,672.0,0.0,17
2563,21058625,164.0,192.0,33.0,0,0.62,672.0,0.0,17
2564,21066621,160.0,184.0,24.0,0,0.576,672.0,0.0,17
2565,21074620,158.0,178.0,16.0,0,0.535,672.0,0.0,17
2566,21082625,152.0,172.0,8.0,0,0.511,672.0,0.0,17
2567,21090625,148.0,166.0,1.0,0,0.472,672.0,0.0,17
2568,21098621,144.0,161.0,-6.0,0,0.478,672.0,0.0,17
2569,21106625,146.0,157.0,-11.0,0,0.451,672.0,0.0,17
2570,21114623,141.0,153.0,-16.0,0,0.466,672.0,0.0,17
2571,21122625,143.0,151.0,-21.0,0,0.481,672.0,0.0,17
2572,21130625,142.0,149.0,-24.0,0,0.445,672.0,0.0,17
2573,21138625,140.0,147.0,-27.0,0,0.454,672.0,0.0,17
2574,21146622,139.0,145.0,-30.0,0,0.464,672.0,0.0,17
2575,21154625,132.0,142.0,-33.0,0,0.474,672.0,0.0,17
2576,21162625,130.0,139.0,-35.0,0,0.457,672.0,0.0,17
2577,21170625,124.0,135.0,-38.0,0,0.49,672.0,0.0,17
2578,21178625,123.0,132.0,-41.0,0,0.5,672.0,0.0,17
2579,21186622,118.0,129.0,-44.0,0,0.51,672.0,0.0,17
2580,21194625,122.0,127.0,-46.0,0,0.493,672.0,0.0,17
2581,21202622,119.0,125.0,-48.0,0,0.5,672.0,0.0,17
2582,21210625,113.0,122.0,-51.0,0,0.533,672.0,0.0,17
2583,21218623,114.0,120.0,-53.0,0,0.516,672.0,0.0,17
2584,21226625,112.0,118.0,-55.0,0,0.523,672.0,0.0,17
2585,21234621,111.0,116.0,-57.0,0,0.529,672.0,0.0,17
2586,21242623,110.0,115.0,-58.0,0,0.51,672.0,0.0,17
2587,21250624,103.0,112.0,-60.0,0,0.539,672.0,0.0,17
2588,21258623,104.0,110.0,-62.0,0,0.545,672.0,0.0,17
2589,21266625,104.0,109.0,-63.0,0,0.526,672.0,0.0,17
2590,21274623,100.0,107.0,-65.0,0,0.554,672.0,0.0,17
2591,21282627,106.0,106.0,-66.0,0,0.535,672.0,0.0,17
2592,21290625,101.0,105.0,-67.0,0,0.538,672.0,0.0,17
2593,21298620,104.0,105.0,-68.0,0,0.541,672.0,0.0,17
2594,21306625,106.0,105.0,-68.0,1,0.52,672.0,0.0,17
2595,21314625,104.0,105.0,-68.0,0,0.52,672.0,0.0,17
2596,21322625,106.0,105.0,-68.0,0,0.52,672.0,0.0,17
2597,21330625,107.0,106.0,-67.0,0,0.538,672.0,0.0,17
2598,21338622,106.0,106.0,-67.0,1,0.517,672.0,0.0,17
2599,21346625,104.0,105.0,-67.0,0,0.517,672.0,0.0,17
2600,21354620,102.0,104.0,-67.0,0,0.517,672.0,0.0,17
2601,21362623,105.0,105.0,-66.0,0,0.536,672.0,0.0,17
2602,21370625,106.0,105.0,-66.0,1,0.515,672.0,0.0,17
2603,21378625,100.0,104.0,-66.0,0,0.515,672.0,0.0,17
2604,21386623,102.0,103.0,-66.0,0,0.515,672.0,0.0,17
2605,21394624,105.0,104.0,-66.0,0,0.515,672.0,0.0,17
2606,21402625,102.0,103.0,-65.0,0,0.533,672.0,0.0,17
2607,21410621,103.0,103.0,-65.0,1,0.512,672.0,0.0,17
2608,21418625,102.0,103.0,-65.0,0,0.513,672.0,0.0,17
2609,21426625,104.0,103.0,-65.0,0,0.513,672.0,0.0,17
2610,21434624,102.0,103.0,-64.0,0,0.531,672.0,0.0,17
2611,21442623,106.0,104.0,-64.0,1,0.51,672.0,0.0,17
2612,21450625,104.0,104.0,-63.0,0,0.528,672.0,0.0,17
2613,21458625,104.0,104.0,-63.0,1,0.507,672.0,0.0,17
2614,21466625,104.0,104.0,-62.0,0,0.525,672.0,0.0,17
2615,21474623,104.0,104.0,-62.0,1,0.504,672.0,0.0,17
2616,21482625,103.0,104.0,-61.0,0,0.522,672.0,0.0,17
2617,21490625,108.0,105.0,-61.0,1,0.501,672.0,0.0,17
2618,21498625,108.0,106.0,-60.0,0,0.519,672.0,0.0,17
2619,21506624,108.0,106.0,-59.0,0,0.516,672.0,0.0,17
2620,21514623,110.0,107.0,-58.0,0,0.512,672.0,0.0,17
2621,21522625,113.0,108.0,-57.0,0,0.509,672.0,0.0,17
2622,21530625,112.0,109.0,-56.0,0,0.506,672.0,0.0,17
2623,21538624,114.0,110.0,-54.0,0,0.521,672.0,0.0,17
2624,21546625,119.0,113.0,-53.0,0,0.495,672.0,0.0,17
2625,21554624,123.0,115.0,-51.0,0,0.511,672.0,0.0,17
2626,21562624,121.0,117.0,-49.0,0,0.504,672.0,0.0,17
2627,21570624,121.0,118.0,-47.0,0,0.498,672.0,0.0,17
2628,21578625,122.0,119.0,-45.0,0,0.491,672.0,0.0,17
2629,21586625,127.0,121.0,-44.0,0,0.465,672.0,0.0,17
2630,21594625,124.0,121.0,-42.0,0,0.48,672.0,0.0,17
2631,21602625,136.0,125.0,-40.0,0,0.473,672.0,0.0,17
2632,21610625,136.0,128.0,-37.0,0,0.486,672.0,0.0,17
2633,21618625,145.0,132.0,-34.0,0,0.476,672.0,0.0,17
2634,21626623,155.0,137.0,-31.0,0,0.467,672.0,0.0,17
2635,21634625,167.0,145.0,-26.0,0,0.496,672.0,0.0,17
2636,21642621,178.0,153.0,-20.0,0,0.499,672.0,0.0,17
2637,21650625,197.0,163.0,-13.0,0,0.498,672.0,0.0,17
2638,21658623,216.0,176.0,-4.0,0,0.506,672.0,0.0,17
2639,21666621,234.0,190.0,6.0,0,0.537,672.0,0.0,17
2640,21674621,255.0,206.0,17.0,0,0.582,672.0,0.0,17
2641,21682625,276.0,223.0,31.0,0,0.652,672.0,0.0,17
2642,21690625,288.0,239.0,44.0,0,0.687,672.0,0.0,17
2643,21698621,304.0,255.0,58.0,0,0.738,672.0,0.0,17
2644,21706622,322.0,271.0,73.0,0,0.788,672.0,0.0,17
2645,21714625,332.0,286.0,87.0,0,0.818,672.0,0.0,17
2646,21722623,340.0,299.0,101.0,0,0.85,672.0,0.0,17
2647,21730625,347.0,311.0,114.0,0,0.866,672.0,0.0,17
2648,21738625,350.0,320.0,126.0,0,0.875,672.0,0.0,17
2649,21746621,353.0,328.0,136.0,0,0.865,672.0,0.0,17
2650,21754625,354.0,334.0,145.0,0,0.86,672.0,0.0,17
2651,21762623,353.0,339.0,152.0,0,0.832,672.0,0.0,17
2652,21770625,351.0,342.0,158.0,0,0.817,672.0,0.0,17
2653,21778625,340.0,341.0,161.0,0,0.755,672.0,0.0,17
2654,21786624,338.0,341.0,163.0,0,0.734,672.0,0.0,17
2655,21794625,332.0,338.0,164.0,0,0.713,672.0,0.0,17
2656,21802625,320.0,334.0,163.0,1,0.712,672.0,0.0,17
2657,21810622,308.0,328.0,160.0,0,0.751,672.0,0.0,17
2658,21818625,298.0,320.0,155.0,0,0.79,672.0,0.0,17
2659,21826622,286.0,312.0,150.0,0,0.784,672.0,0.0,17
2660,21834623,274.0,303.0,143.0,0,0.816,672.0,0.0,17
2661,21842624,264.0,293.0,135.0,0,0.823,672.0,0.0,17
2662,21850625,252.0,283.0,126.0,0,0.825,672.0,0.0,17
2663,21858622,236.0,272.0,116.0,0,0.822,672.0,0.0,17
2664,21866625,223.0,260.0,106.0,0,0.801,672.0,0.0,17
2665,21874621,212.0,248.0,95.0,0,0.789,672.0,0.0,17
2666,21882625,204.0,238.0,84.0,0,0.761,672.0,0.0,17
2667,21890625,189.0,226.0,72.0,0,0.739,672.0,0.0,17
2668,21898622,180.0,215.0,61.0,0,0.695,672.0,0.0,17
2669,21906625,172.0,204.0,50.0,0,0.662,672.0,0.0,17
2670,21914625,164.0,195.0,39.0,0,0.628,672.0,0.0,17
2671,21922623,161.0,186.0,29.0,0,0.584,672.0,0.0,17
2672,21930625,159.0,180.0,20.0,0,0.543,672.0,0.0,17
2673,21938621,155.0,174.0,12.0,0,0.504,672.0,0.0,17
2674,21946621,153.0,169.0,5.0,0,0.467,672.0,0.0,17
2675,21954625,155.0,165.0,-1.0,0,0.442,672.0,0.0,17
2676,21962625,154.0,163.0,-6.0,0,0.435,672.0,0.0,17
2677,21970625,155.0,161.0,-10.0,0,0.425,672.0,0.0,17
2678,21978620,148.0,158.0,-14.0,0,0.437,672.0,0.0,17
2679,21986625,148.0,155.0,-18.0,0,0.448,672.0,0.0,17
2680,21994625,148.0,154.0,-20.0,0,0.412,672.0,0.0,17
2681,22002625,146.0,152.0,-23.0,0,0.442,672.0,0.0,17
2682,22010625,148.0,151.0,-25.0,0,0.427,672.0,0.0,17
2683,22018621,141.0,148.0,-27.0,0,0.433,672.0,0.0,17
2684,22026625,145.0,148.0,-29.0,0,0.439,672.0,0.0,17
2685,22034620,140.0,146.0,-30.0,0,0.422,672.0,0.0,17
2686,22042625,133.0,143.0,-32.0,0,0.449,672.0,0.0,17
2687,22050625,132.0,140.0,-34.0,0,0.455,672.0,0.0,17
2688,22058625,133.0,138.0,-36.0,0,0.461,672.0,0.0,17
2689,22066622,126.0,135.0,-38.0,0,0.468,672.0,0.0,17
2690,22074623,120.0,132.0,-41.0,0,0.498,672.0,0.0,17
2691,22082625,119.0,129.0,-43.0,0,0.483,672.0,0.0,17
2692,22090623,116.0,126.0,-46.0,0,0.514,672.0,0.0,17
2693,22098625,108.0,121.0,-49.0,0,0.523,672.0,0.0,17
2694,22106624,108.0,118.0,-52.0,0,0.532,672.0,0.0,17
2695,22114625,103.0,114.0,-55.0,0,0.541,672.0,0.0,17
2696,22122623,99.0,111.0,-58.0,0,0.549,672.0,0.0,17
2697,22130625,96.0,107.0,-61.0,0,0.558,672.0,0.0,17
2698,22138625,92.0,103.0,-64.0,0,0.566,672.0,0.0,17
2699,22146621,84.0,99.0,-68.0,0,0.599,672.0,0.0,17
2700,22154625,85.0,95.0,-71.0,0,0.585,672.0,0.0,17
2701,22162625,83.0,92.0,-74.0,0,0.593,672.0,0.0,17
2702,22170624,82.0,90.0,-77.0,0,0.601,672.0,0.0,17
2703,22178625,81.0,88.0,-79.0,0,0.584,672.0,0.0,17
2704,22186625,78.0,85.0,-81.0,0,0.589,672.0,0.0,17
2705,22194625,81.0,84.0,-83.0,0,0.593,672.0,0.0,17
2706,22202625,81.0,84.0,-84.0,0,0.575,672.0,0.0,17
2707,22210625,84.0,84.0,-85.0,0,0.577,672.0,0.0,17
2708,22218625,82.0,83.0,-85.0,1,0.557,672.0,0.0,17
2709,22226623,84.0,83.0,-86.0,0,0.578,672.0,0.0,17
2710,22234620,82.0,83.0,-86.0,1,0.558,672.0,0.0,17
2711,22242620,87.0,84.0,-85.0,0,0.574,672.0,0.0,17
2712,22250625,85.0,84.0,-85.0,1,0.554,672.0,0.0,17
2713,22258620,84.0,84.0,-84.0,0,0.57,672.0,0.0,17
2714,22266625,84.0,84.0,-84.0,1,0.55,672.0,0.0,17
2715,22274625,86.0,85.0,-83.0,0,0.567,672.0,0.0,17
2716,22282625,87.0,85.0,-82.0,0,0.564,672.0,0.0,17
2717,22290625,88.0,86.0,-81.0,0,0.561,672.0,0.0,17
2718,22298621,91.0,87.0,-80.0,0,0.557,672.0,0.0,17
2719,22306625,92.0,88.0,-79.0,0,0.554,672.0,0.0,17
2720,22314623,92.0,89.0,-77.0,0,0.569,672.0,0.0,17
2721,22322625,96.0,91.0,-76.0,0,0.546,672.0,0.0,17
2722,22330620,90.0,91.0,-75.0,0,0.542,672.0,0.0,17
2723,22338624,98.0,92.0,-73.0,0,0.557,672.0,0.0,17
2724,22346625,97.0,94.0,-72.0,0,0.533,672.0,0.0,17
2725,22354625,97.0,94.0,-70.0,0,0.548,672.0,0.0,17
2726,22362621,102.0,96.0,-69.0,0,0.524,672.0,0.0,17
2727,22370625,102.0,98.0,-67.0,0,0.539,672.0,0.0,17
2728,22378625,108.0,100.0,-65.0,0,0.533,672.0,0.0,17
2729,22386622,108.0,102.0,-63.0,0,0.527,672.0,0.0,17
2730,22394620,108.0,103.0,-61.0,0,0.521,672.0,0.0,17
2731,22402624,108.0,105.0,-59.0,0,0.515,672.0,0.0,17
2732,22410623,112.0,106.0,-57.0,0,0.509,672.0,0.0,17
2733,22418622,113.0,108.0,-55.0,0,0.503,672.0,0.0,17
2734,22426620,117.0,110.0,-53.0,0,0.497,672.0,0.0,17
2735,22434622,118.0,112.0,-51.0,0,0.491,672.0,0.0,17
2736,22442621,120.0,114.0,-48.0,0,0.503,672.0,0.0,17
2737,22450625,120.0,115.0,-46.0,0,0.476,672.0,0.0,17
2738,22458625,124.0,118.0,-44.0,0,0.47,672.0,0.0,17
2739,22466625,127.0,120.0,-42.0,0,0.464,672.0,0.0,17
2740,22474622,127.0,122.0,-40.0,0,0.458,672.0,0.0,17
2741,22482622,134.0,125.0,-37.0,0,0.47,672.0,0.0,17
2742,22490620,136.0,127.0,-35.0,0,0.443,672.0,0.0,17
2743,22498623,137.0,130.0,-32.0,0,0.456,672.0,0.0,17
2744,22506623,140.0,132.0,-30.0,0,0.428,672.0,0.0,17
2745,22514625,140.0,134.0,-27.0,0,0.441,672.0,0.0,17
2746,22522620,147.0,137.0,-25.0,0,0.413,672.0,0.0,17
2747,22530623,150.0,140.0,-22.0,0,0.427,672.0,0.0,17
2748,22538623,152.0,143.0,-19.0,0,0.418,672.0,0.0,17
2749,22546625,164.0,148.0,-15.0,0,0.429,672.0,0.0,17
2750,22554624,175.0,155.0,-11.0,0,0.418,672.0,0.0,17
2751,22562620,188.0,163.0,-6.0,0,0.427,672.0,0.0,17
2752,22570622,207.0,173.0,1.0,0,0.476,672.0,0.0,17
2753,22578624,223.0,185.0,10.0,0,0.536,672.0,0.0,17
2754,22586620,240.0,199.0,19.0,0,0.562,672.0,0.0,17
2755,22594625,260.0,214.0,30.0,0,0.621,672.0,0.0,17
2756,22602625,278.0,229.0,42.0,0,0.668,672.0,0.0,17
2757,22610625,295.0,245.0,55.0,0,0.716,672.0,0.0,17
2758,22618625,310.0,261.0,69.0,0,0.764,672.0,0.0,17
2759,22626625,323.0,276.0,83.0,0,0.8,672.0,0.0,17
2760,22634621,334.0,290.0,97.0,0,0.831,672.0,0.0,17
2761,22642621,347.0,304.0,110.0,0,0.848,672.0,0.0,17
2762,22650623,348.0,315.0,122.0,0,0.857,672.0,0.0,17
2763,22658625,355.0,324.0,134.0,0,0.873,672.0,0.0,17
2764,22666622,358.0,333.0,144.0,0,0.86,672.0,0.0,17
2765,22674623,353.0,337.0,152.0,0,0.837,672.0,0.0,17
2766,22682623,349.0,340.0,158.0,0,0.805,672.0,0.0,17
2767,22690625,344.0,341.0,163.0,0,0.788,672.0,0.0,17
2768,22698622,340.0,341.0,166.0,0,0.747,672.0,0.0,17
2769,22706625,332.0,339.0,167.0,0,0.705,672.0,0.0,17
2770,22714625,325.0,335.0,166.0,1,0.703,672.0,0.0,17
2771,22722621,315.0,330.0,164.0,0,0.72,672.0,0.0,17
2772,22730625,304.0,324.0,161.0,0,0.737,672.0,0.0,17
2773,22738623,292.0,316.0,156.0,0,0.773,672.0,0.0,17
2774,22746625,283.0,308.0,149.0,0,0.803,672.0,0.0,17
2775,22754623,271.0,299.0,142.0,0,0.792,672.0,0.0,17
2776,22762625,259.0,289.0,134.0,0,0.797,672.0,0.0,17
2777,22770621,245.0,279.0,125.0,0,0.797,672.0,0.0,17
2778,22778623,237.0,269.0,115.0,0,0.791,672.0,0.0,17
2779,22786623,220.0,257.0,105.0,0,0.769,672.0,0.0,17
2780,22794623,214.0,246.0,94.0,0,0.755,672.0,0.0,17
2781,22802625,199.0,235.0,84.0,0,0.717,672.0,0.0,17
2782,22810625,184.0,223.0,72.0,0,0.708,672.0,0.0,17
2783,22818621,174.0,211.0,61.0,0,0.666,672.0,0.0,17
2784,22826625,165.0,200.0,49.0,0,0.643,672.0,0.0,17
2785,22834625,162.0,191.0,38.0,0,0.601,672.0,0.0,17
2786,22842625,152.0,181.0,28.0,0,0.56,672.0,0.0,17
2787,22850623,148.0,173.0,18.0,0,0.533,672.0,0.0,17
2788,22858625,147.0,167.0,10.0,0,0.482,672.0,0.0,17
2789,22866624,143.0,161.0,2.0,0,0.467,672.0,0.0,17
2790,22874625,144.0,157.0,-5.0,0,0.467,672.0,0.0,17
2791,22882620,142.0,153.0,-11.0,0,0.463,672.0,0.0,17
2792,22890624,139.0,150.0,-16.0,0,0.456,672.0,0.0,17
2793,22898625,139.0,147.0,-20.0,0,0.447,672.0,0.0,17
2794,22906625,141.0,146.0,-24.0,0,0.458,672.0,0.0,17
2795,22914623,136.0,143.0,-27.0,0,0.446,672.0,0.0,17
2796,22922622,139.0,142.0,-29.0,0,0.432,672.0,0.0,17
2797,22930625,142.0,142.0,-31.0,0,0.437,672.0,0.0,17
2798,22938625,135.0,140.0,-33.0,0,0.443,672.0,0.0,17
2799,22946625,138.0,140.0,-34.0,0,0.426,672.0,0.0,17
2800,22954621,134.0,138.0,-35.0,0,0.429,672.0,0.0,17
2801,22962623,132.0,137.0,-36.0,0,0.432,672.0,0.0,17
2802,22970624,131.0,135.0,-38.0,0,0.457,672.0,0.0,17
2803,22978625,122.0,132.0,-39.0,0,0.44,672.0,0.0,17
2804,22986625,124.0,130.0,-41.0,0,0.465,672.0,0.0,17
2805,22994625,122.0,128.0,-43.0,0,0.471,672.0,0.0,17
2806,23002625,119.0,126.0,-44.0,0,0.454,672.0,0.0,17
2807,23010625,115.0,123.0,-46.0,0,0.479,672.0,0.0,17
2808,23018625,114.0,121.0,-48.0,0,0.484,672.0,0.0,17
2809,23026622,111.0,119.0,-50.0,0,0.49,672.0,0.0,17
2810,23034625,110.0,117.0,-52.0,0,0.495,672.0,0.0,17
2811,23042621,107.0,114.0,-54.0,0,0.501,672.0,0.0,17
2812,23050621,107.0,112.0,-56.0,0,0.506,672.0,0.0,17
2813,23058624,104.0,110.0,-58.0,0,0.511,672.0,0.0,17
2814,23066625,104.0,109.0,-59.0,0,0.494,672.0,0.0,17
2815,23074625,99.0,106.0,-61.0,0,0.519,672.0,0.0,17
2816,23082620,96.0,104.0,-63.0,0,0.524,672.0,0.0,17
2817,23090625,98.0,102.0,-64.0,0,0.507,672.0,0.0,17
2818,23098621,97.0,101.0,-65.0,0,0.509,672.0,0.0,17
2819,23106624,98.0,100.0,-66.0,0,0.512,672.0,0.0,17
2820,23114625,94.0,99.0,-68.0,0,0.536,672.0,0.0,17
2821,23122625,100.0,99.0,-68.0,1,0.498,672.0,0.0,17
2822,23130621,94.0,98.0,-69.0,0,0.518,672.0,0.0,17
2823,23138625,92.0,96.0,-69.0,1,0.5,672.0,0.0,17
2824,23146625,93.0,96.0,-70.0,0,0.52,672.0,0.0,17
2825,23154621,99.0,96.0,-70.0,1,0.501,672.0,0.0,17
2826,23162625,99.0,97.0,-70.0,0,0.501,672.0,0.0,17
2827,23170625,98.0,97.0,-69.0,0,0.516,672.0,0.0,17
2828,23178623,97.0,97.0,-69.0,1,0.498,672.0,0.0,17
2829,23186624,100.0,98.0,-68.0,0,0.513,672.0,0.0,17
2830,23194623,101.0,99.0,-68.0,1,0.494,672.0,0.0,17
2831,23202622,102.0,99.0,-67.0,0,0.509,672.0,0.0,17
2832,23210625,111.0,102.0,-65.0,0,0.523,672.0,0.0,17
2833,23218625,111.0,104.0,-63.0,0,0.517,672.0,0.0,17
2834,23226625,110.0,106.0,-62.0,0,0.495,672.0,0.0,17
2835,23234625,114.0,108.0,-60.0,0,0.508,672.0,0.0,17
2836,23242625,119.0,110.0,-57.0,0,0.52,672.0,0.0,17
2837,23250625,124.0,114.0,-55.0,0,0.494,672.0,0.0,17
2838,23258625,125.0,116.0,-52.0,0,0.506,672.0,0.0,17
2839,23266625,126.0,119.0,-49.0,0,0.497,672.0,0.0,17
2840,23274625,127.0,121.0,-47.0,0,0.472,672.0,0.0,17
2841,23282625,132.0,123.0,-44.0,0,0.483,672.0,0.0,17
2842,23290625,136.0,127.0,-41.0,0,0.475,672.0,0.0,17
2843,23298625,132.0,128.0,-39.0,0,0.45,672.0,0.0,17
2844,23306624,136.0,130.0,-36.0,0,0.461,672.0,0.0,17
2845,23314623,137.0,132.0,-34.0,0,0.436,672.0,0.0,17
2846,23322621,137.0,133.0,-32.0,0,0.431,672.0,0.0,17
2847,23330623,140.0,135.0,-30.0,0,0.425,672.0,0.0,17
2848,23338625,142.0,136.0,-28.0,0,0.42,672.0,0.0,17
2849,23346625,152.0,140.0,-25.0,0,0.432,672.0,0.0,17
2850,23354625,159.0,145.0,-22.0,0,0.424,672.0,0.0,17
2851,23362625,171.0,151.0,-18.0,0,0.433,672.0,0.0,17
2852,23370624,184.0,159.0,-13.0,0,0.441,672.0,0.0,17
2853,23378625,201.0,169.0,-6.0,0,0.462,672.0,0.0,17
2854,23386621,215.0,180.0,1.0,0,0.45,672.0,0.0,17
2855,23394625,234.0,193.0,11.0,0,0.523,672.0,0.0,17
2856,23402622,248.0,207.0,21.0,0,0.549,672.0,0.0,17
2857,23410625,266.0,221.0,32.0,0,0.591,672.0,0.0,17
2858,23418623,281.0,236.0,44.0,0,0.635,672.0,0.0,17
2859,23426625,292.0,249.0,57.0,0,0.681,672.0,0.0,17
2860,23434622,303.0,262.0,69.0,0,0.704,672.0,0.0,17
2861,23442620,314.0,275.0,81.0,0,0.735,672.0,0.0,17
2862,23450623,324.0,287.0,93.0,0,0.765,672.0,0.0,17
2863,23458624,332.0,298.0,105.0,0,0.791,672.0,0.0,17
2864,23466620,337.0,307.0,115.0,0,0.787,672.0,0.0,17
2865,23474625,338.0,315.0,125.0,0,0.805,672.0,0.0,17
2866,23482622,337.0,320.0,133.0,0,0.788,672.0,0.0,17
2867,23490625,336.0,324.0,139.0,0,0.761,672.0,0.0,17
2868,23498625,336.0,327.0,144.0,0,0.749,672.0,0.0,17
2869,23506625,332.0,328.0,148.0,0,0.734,672.0,0.0,17
2870,23514625,325.0,327.0,150.0,0,0.697,672.0,0.0,17
2871,23522625,317.0,325.0,151.0,0,0.679,672.0,0.0,17
2872,23530622,306.0,320.0,150.0,1,0.678,672.0,0.0,17
2873,23538621,293.0,314.0,147.0,0,0.713,672.0,0.0,17
2874,23546625,284.0,306.0,142.0,0,0.747,672.0,0.0,17
2875,23554623,270.0,298.0,136.0,0,0.758,672.0,0.0,17
2876,23562625,255.0,287.0,129.0,0,0.766,672.0,0.0,17
2877,23570623,248.0,278.0,121.0,0,0.77,672.0,0.0,17
2878,23578625,233.0,267.0,112.0,0,0.77,672.0,0.0,17
2879,23586625,217.0,255.0,101.0,0,0.774,672.0,0.0,17
2880,23594623,204.0,242.0,91.0,0,0.739,672.0,0.0,17
2881,23602622,192.0,230.0,79.0,0,0.734,672.0,0.0,17
2882,23610625,181.0,218.0,68.0,0,0.694,672.0,0.0,17
2883,23618625,169.0,206.0,56.0,0,0.672,672.0,0.0,17
2884,23626625,160.0,195.0,44.0,0,0.639,672.0,0.0,17
2885,23634621,150.0,184.0,33.0,0,0.597,672.0,0.0,17
2886,23642622,144.0,174.0,22.0,0,0.567,672.0,0.0,17
2887,23650622,139.0,166.0,12.0,0,0.528,672.0,0.0,17
2888,23658621,133.0,158.0,2.0,0,0.503,672.0,0.0,17
2889,23666624,127.0,150.0,-7.0,0,0.493,672.0,0.0,17
2890,23674624,125.0,144.0,-15.0,0,0.497,672.0,0.0,17
2891,23682624,124.0,139.0,-22.0,0,0.497,672.0,0.0,17
2892,23690625,122.0,135.0,-28.0,0,0.495,672.0,0.0,17
2893,23698625,118.0,131.0,-34.0,0,0.511,672.0,0.0,17
2894,23706625,118.0,128.0,-38.0,0,0.482,672.0,0.0,17
2895,23714625,116.0,125.0,-43.0,0,0.516,672.0,0.0,17
2896,23722625,115.0,123.0,-46.0,0,0.484,672.0,0.0,17
2897,23730623,112.0,120.0,-49.0,0,0.492,672.0,0.0,17
2898,23738625,111.0,118.0,-52.0,0,0.5,672.0,0.0,17
2899,23746625,112.0,116.0,-54.0,0,0.486,672.0,0.0,17
2900,23754622,112.0,115.0,-56.0,0,0.491,672.0,0.0,17
2901,23762625,112.0,115.0,-57.0,0,0.475,672.0,0.0,17
2902,23770625,110.0,113.0,-59.0,0,0.499,672.0,0.0,17
2903,23778623,112.0,113.0,-59.0,1,0.462,672.0,0.0,17
2904,23786625,109.0,112.0,-60.0,0,0.483,672.0,0.0,17
2905,23794625,105.0,110.0,-61.0,0,0.485,672.0,0.0,17
2906,23802623,108.0,110.0,-62.0,0,0.488,672.0,0.0,17
2907,23810625,104.0,108.0,-63.0,0,0.491,672.0,0.0,17
2908,23818624,100.0,106.0,-64.0,0,0.493,672.0,0.0,17
2909,23826625,100.0,105.0,-65.0,0,0.496,672.0,0.0,17
2910,23834625,100.0,104.0,-66.0,0,0.499,672.0,0.0,17
2911,23842625,96.0,102.0,-67.0,0,0.501,672.0,0.0,17
2912,23850625,102.0,102.0,-67.0,1,0.483,672.0,0.0,17
2913,23858624,101.0,102.0,-68.0,0,0.504,672.0,0.0,17
2914,23866625,97.0,101.0,-68.0,1,0.486,672.0,0.0,17
2915,23874625,98.0,100.0,-68.0,0,0.486,672.0,0.0,17
2916,23882620,99.0,100.0,-69.0,0,0.507,672.0,0.0,17
2917,23890625,100.0,100.0,-69.0,1,0.489,672.0,0.0,17
2918,23898622,96.0,99.0,-69.0,0,0.489,672.0,0.0,17
2919,23906620,96.0,98.0,-69.0,0,0.488,672.0,0.0,17
2920,23914625,96.0,98.0,-69.0,0,0.488,672.0,0.0,17
2921,23922625,99.0,98.0,-69.0,0,0.488,672.0,0.0,17
2922,23930623,98.0,98.0,-69.0,0,0.488,672.0,0.0,17
2923,23938624,100.0,98.0,-68.0,0,0.504,672.0,0.0,17
2924,23946625,105.0,100.0,-67.0,0,0.501,672.0,0.0,17
2925,23954620,101.0,100.0,-67.0,1,0.483,672.0,0.0,17
2926,23962625,106.0,102.0,-65.0,0,0.515,672.0,0.0,17
2927,23970625,104.0,102.0,-64.0,0,0.493,672.0,0.0,17
2928,23978621,104.0,103.0,-63.0,0,0.49,672.0,0.0,17
2929,23986622,105.0,103.0,-62.0,0,0.488,672.0,0.0,17
2930,23994625,108.0,104.0,-61.0,0,0.485,672.0,0.0,17
2931,24002625,110.0,106.0,-60.0,0,0.482,672.0,0.0,17
2932,24010625,112.0,107.0,-58.0,0,0.496,672.0,0.0,17
2933,24018625,112.0,108.0,-57.0,0,0.474,672.0,0.0,17
2934,24026625,113.0,110.0,-55.0,0,0.488,672.0,0.0,17
2935,24034625,112.0,110.0,-54.0,0,0.466,672.0,0.0,17
2936,24042623,118.0,112.0,-53.0,0,0.464,672.0,0.0,17
2937,24050624,121.0,114.0,-51.0,0,0.477,672.0,0.0,17
2938,24058625,124.0,117.0,-49.0,0,0.472,672.0,0.0,17
2939,24066625,122.0,118.0,-47.0,0,0.467,672.0,0.0,17
2940,24074625,127.0,120.0,-45.0,0,0.461,672.0,0.0,17
2941,24082621,127.0,122.0,-43.0,0,0.456,672.0,0.0,17
2942,24090624,132.0,124.0,-40.0,0,0.468,672.0,0.0,17
2943,24098625,136.0,127.0,-38.0,0,0.443,672.0,0.0,17
2944,24106623,136.0,129.0,-35.0,0,0.454,672.0,0.0,17
2945,24114625,140.0,132.0,-33.0,0,0.429,672.0,0.0,17
2946,24122621,141.0,134.0,-30.0,0,0.441,672.0,0.0,17
2947,24130623,147.0,137.0,-28.0,0,0.416,672.0,0.0,17
2948,24138625,143.0,139.0,-25.0,0,0.428,672.0,0.0,17
2949,24146623,145.0,140.0,-23.0,0,0.403,672.0,0.0,17
2950,24154623,149.0,142.0,-21.0,0,0.398,672.0,0.0,17
2951,24162625,150.0,144.0,-19.0,0,0.393,672.0,0.0,17
2952,24170625,150.0,146.0,-17.0,0,0.388,672.0,0.0,17
2953,24178622,150.0,147.0,-15.0,0,0.383,672.0,0.0,17
2954,24186625,149.0,147.0,-14.0,0,0.362,672.0,0.0,17
2955,24194621,149.0,148.0,-13.0,0,0.36,672.0,0.0,17
2956,24202620,147.0,147.0,-12.0,0,0.357,672.0,0.0,17
2957,24210625,144.0,147.0,-11.0,0,0.355,672.0,0.0,17
2958,24218625,147.0,147.0,-11.0,1,0.337,672.0,0.0,17
2959,24226622,145.0,146.0,-11.0,0,0.337,672.0,0.0,17
2960,24234620,147.0,146.0,-11.0,0,0.337,672.0,0.0,17
2961,24242623,150.0,147.0,-11.0,0,0.336,672.0,0.0,17
2962,24250622,156.0,149.0,-10.0,0,0.352,672.0,0.0,17
2963,24258620,165.0,153.0,-8.0,0,0.367,672.0,0.0,17
2964,24266625,174.0,158.0,-5.0,0,0.38,672.0,0.0,17
2965,24274625,188.0,165.0,-1.0,0,0.394,672.0,0.0,17
2966,24282621,207.0,176.0,4.0,0,0.429,672.0,0.0,17
2967,24290625,224.0,187.0,12.0,0,0.508,672.0,0.0,17
2968,24298621,244.0,201.0,21.0,0,0.549,672.0,0.0,17
2969,24306620,269.0,218.0,32.0,0,0.608,672.0,0.0,17
2970,24314625,287.0,234.0,44.0,0,0.653,672.0,0.0,17
2971,24322625,309.0,252.0,58.0,0,0.711,672.0,0.0,17
2972,24330623,324.0,270.0,73.0,0,0.759,672.0,0.0,17
2973,24338625,341.0,287.0,88.0,0,0.797,672.0,0.0,17
2974,24346625,348.0,302.0,103.0,0,0.831,672.0,0.0,17
2975,24354625,362.0,316.0,118.0,0,0.859,672.0,0.0,17
2976,24362623,369.0,329.0,131.0,0,0.864,672.0,0.0,17
2977,24370620,372.0,340.0,144.0,0,0.881,672.0,0.0,17
2978,24378625,378.0,349.0,155.0,0,0.871,672.0,0.0,17
2979,24386624,375.0,355.0,164.0,0,0.851,672.0,0.0,17
2980,24394625,374.0,360.0,172.0,0,0.841,672.0,0.0,17
2981,24402621,367.0,362.0,178.0,0,0.81,672.0,0.0,17
2982,24410625,363.0,362.0,181.0,0,0.752,672.0,0.0,17
2983,24418625,355.0,360.0,183.0,0,0.733,672.0,0.0,17
2984,24426623,347.0,357.0,183.0,1,0.695,672.0,0.0,17
2985,24434625,338.0,352.0,182.0,0,0.711,672.0,0.0,17
2986,24442625,326.0,346.0,178.0,0,0.768,672.0,0.0,17
2987,24450625,316.0,339.0,174.0,0,0.764,672.0,0.0,17
2988,24458625,308.0,331.0,168.0,0,0.798,672.0,0.0,17
2989,24466620,297.0,323.0,161.0,0,0.809,672.0,0.0,17
2990,24474625,285.0,314.0,153.0,0,0.817,672.0,0.0,17
2991,24482625,273.0,304.0,145.0,0,0.806,672.0,0.0,17
2992,24490625,259.0,293.0,135.0,0,0.821,672.0,0.0,17
2993,24498625,247.0,282.0,125.0,0,0.804,672.0,0.0,17
2994,24506624,234.0,270.0,114.0,0,0.795,672.0,0.0,17
2995,24514621,224.0,259.0,103.0,0,0.771,672.0,0.0,17
2996,24522625,213.0,248.0,92.0,0,0.745,672.0,0.0,17
2997,24530625,201.0,237.0,81.0,0,0.717,672.0,0.0,17
2998,24538620,188.0,225.0,69.0,0,0.697,672.0,0.0,17
2999,24546621,181.0,214.0,58.0,0,0.655,672.0,0.0,17
3000,24554623,172.0,204.0,47.0,0,0.624,672.0,0.0,17
3001,24562625,168.0,195.0,37.0,0,0.584,672.0,0.0,17
3002,24570625,160.0,187.0,27.0,0,0.557,672.0,0.0,17
3003,24578625,153.0,179.0,17.0,0,0.53,672.0,0.0,17
3004,24586621,145.0,170.0,8.0,0,0.493,672.0,0.0,17
3005,24594625,140.0,163.0,0.0,0,0.466,672.0,0.0,17
3006,24602620,130.0,155.0,-8.0,0,0.485,672.0,0.0,17
3007,24610625,127.0,148.0,-16.0,0,0.504,672.0,0.0,17
3008,24618622,126.0,143.0,-23.0,0,0.505,672.0,0.0,17
3009,24626625,121.0,138.0,-30.0,0,0.523,672.0,0.0,17
3010,24634625,120.0,133.0,-35.0,0,0.499,672.0,0.0,17
3011,24642625,117.0,129.0,-41.0,0,0.534,672.0,0.0,17
3012,24650625,114.0,126.0,-45.0,0,0.506,672.0,0.0,17
3013,24658621,112.0,122.0,-49.0,0,0.516,672.0,0.0,17
3014,24666625,106.0,118.0,-53.0,0,0.527,672.0,0.0,17
3015,24674625,107.0,116.0,-57.0,0,0.538,672.0,0.0,17
3016,24682625,104.0,113.0,-60.0,0,0.526,672.0,0.0,17
3017,24690625,104.0,111.0,-63.0,0,0.534,672.0,0.0,17
3018,24698625,99.0,108.0,-65.0,0,0.52,672.0,0.0,17
3019,24706625,96.0,105.0,-68.0,0,0.547,672.0,0.0,17
3020,24714621,98.0,103.0,-70.0,0,0.533,672.0,0.0,17
3021,24722621,99.0,102.0,-72.0,0,0.538,672.0,0.0,17
3022,24730625,94.0,100.0,-73.0,0,0.522,672.0,0.0,17
3023,24738625,95.0,99.0,-75.0,0,0.545,672.0,0.0,17
3024,24746625,92.0,97.0,-76.0,0,0.529,672.0,0.0,17
3025,24754625,92.0,96.0,-77.0,0,0.532,672.0,0.0,17
3026,24762625,91.0,95.0,-78.0,0,0.534,672.0,0.0,17
3027,24770620,89.0,93.0,-79.0,0,0.537,672.0,0.0,17
3028,24778625,88.0,92.0,-80.0,0,0.539,672.0,0.0,17
3029,24786625,88.0,91.0,-81.0,0,0.542,672.0,0.0,17
3030,24794624,85.0,90.0,-82.0,0,0.544,672.0,0.0,17
3031,24802621,88.0,89.0,-82.0,1,0.527,672.0,0.0,17
3032,24810622,87.0,89.0,-83.0,0,0.547,672.0,0.0,17
3033,24818625,90.0,89.0,-83.0,1,0.529,672.0,0.0,17
3034,24826622,87.0,89.0,-83.0,0,0.529,672.0,0.0,17
3035,24834625,90.0,89.0,-82.0,0,0.544,672.0,0.0,17
3036,24842625,94.0,90.0,-82.0,1,0.527,672.0,0.0,17
3037,24850621,94.0,91.0,-81.0,0,0.542,672.0,0.0,17
3038,24858625,93.0,92.0,-80.0,0,0.54,672.0,0.0,17
3039,24866625,101.0,94.0,-78.0,0,0.553,672.0,0.0,17
3040,24874623,100.0,95.0,-77.0,0,0.532,672.0,0.0,17
3041,24882625,106.0,98.0,-75.0,0,0.546,672.0,0.0,17
3042,24890624,108.0,100.0,-72.0,0,0.558,672.0,0.0,17
3043,24898625,114.0,104.0,-70.0,0,0.533,672.0,0.0,17
3044,24906621,119.0,107.0,-67.0,0,0.545,672.0,0.0,17
3045,24914625,118.0,110.0,-64.0,0,0.537,672.0,0.0,17
3046,24922623,120.0,112.0,-61.0,0,0.53,672.0,0.0,17
3047,24930625,119.0,114.0,-58.0,0,0.522,672.0,0.0,17
3048,24938625,122.0,116.0,-55.0,0,0.514,672.0,0.0,17
3049,24946621,124.0,118.0,-53.0,0,0.49,672.0,0.0,17
3050,24954621,121.0,119.0,-51.0,0,0.484,672.0,0.0,17
3051,24962623,124.0,120.0,-49.0,0,0.479,672.0,0.0,17
3052,24970625,126.0,121.0,-47.0,0,0.474,672.0,0.0,17
3053,24978620,127.0,123.0,-45.0,0,0.469,672.0,0.0,17
3054,24986621,132.0,125.0,-43.0,0,0.463,672.0,0.0,17
3055,24994624,127.0,125.0,-42.0,0,0.442,672.0,0.0,17
3056,25002625,127.0,126.0,-40.0,0,0.456,672.0,0.0,17
3057,25010625,131.0,127.0,-39.0,0,0.434,672.0,0.0,17
3058,25018620,132.0,128.0,-37.0,0,0.448,672.0,0.0,17
3059,25026625,134.0,130.0,-36.0,0,0.426,672.0,0.0,17
3060,25034625,135.0,131.0,-35.0,0,0.424,672.0,0.0,17
3061,25042624,132.0,131.0,-33.0,0,0.437,672.0,0.0,17
3062,25050625,134.0,132.0,-32.0,0,0.416,672.0,0.0,17
3063,25058620,133.0,132.0,-31.0,0,0.413,672.0,0.0,17
3064,25066625,138.0,134.0,-30.0,0,0.411,672.0,0.0,17
3065,25074625,140.0,135.0,-29.0,0,0.408,672.0,0.0,17
3066,25082625,146.0,138.0,-27.0,0,0.422,672.0,0.0,17
3067,25090625,152.0,141.0,-25.0,0,0.416,672.0,0.0,17
3068,25098620,157.0,145.0,-22.0,0,0.428,672.0,0.0,17
3069,25106624,171.0,151.0,-19.0,0,0.42,672.0,0.0,17
3070,25114624,186.0,160.0,-13.0,0,0.463,672.0,0.0,17
3071,25122625,202.0,170.0,-7.0,0,0.448,672.0,0.0,17
3072,25130622,212.0,180.0,1.0,0,0.464,672.0,0.0,17
3073,25138625,234.0,193.0,10.0,0,0.493,672.0,0.0,17
3074,25146624,248.0,206.0,20.0,0,0.532,672.0,0.0,17
3075,25154622,267.0,221.0,31.0,0,0.573,672.0,0.0,17
3076,25162625,291.0,238.0,44.0,0,0.629,672.0,0.0,17
3077,25170624,304.0,254.0,58.0,0,0.675,672.0,0.0,17
3078,25178622,320.0,270.0,72.0,0,0.712,672.0,0.0,17
3079,25186623,331.0,285.0,86.0,0,0.747,672.0,0.0,17
3080,25194624,339.0,298.0,99.0,0,0.769,672.0,0.0,17
3081,25202623,341.0,308.0,111.0,0,0.784,672.0,0.0,17
3082,25210624,346.0,318.0,123.0,0,0.807,672.0,0.0,17
3083,25218621,341.0,323.0,132.0,0,0.784,672.0,0.0,17
3084,25226625,342.0,328.0,140.0,0,0.781,672.0,0.0,17
3085,25234625,338.0,330.0,145.0,0,0.734,672.0,0.0,17
3086,25242623,336.0,332.0,150.0,0,0.741,672.0,0.0,17
3087,25250625,326.0,330.0,152.0,0,0.685,672.0,0.0,17
3088,25258625,321.0,328.0,153.0,0,0.668,672.0,0.0,17
3089,25266625,312.0,324.0,152.0,1,0.667,672.0,0.0,17
3090,25274623,308.0,320.0,150.0,0,0.683,672.0,0.0,17
3091,25282625,299.0,315.0,147.0,0,0.699,672.0,0.0,17
3092,25290625,290.0,309.0,143.0,0,0.714,672.0,0.0,17
3093,25298625,282.0,302.0,137.0,0,0.744,672.0,0.0,17
3094,25306625,272.0,295.0,131.0,0,0.734,672.0,0.0,17
3095,25314625,255.0,285.0,124.0,0,0.741,672.0,0.0,17
3096,25322625,244.0,275.0,116.0,0,0.744,672.0,0.0,17
3097,25330625,231.0,265.0,107.0,0,0.742,672.0,0.0,17
3098,25338622,220.0,254.0,97.0,0,0.735,672.0,0.0,17
3099,25346625,207.0,242.0,87.0,0,0.712,672.0,0.0,17
3100,25354625,195.0,231.0,76.0,0,0.698,672.0,0.0,17
3101,25362625,183.0,219.0,65.0,0,0.67,672.0,0.0,17
3102,25370625,174.0,208.0,54.0,0,0.64,672.0,0.0,17
3103,25378625,164.0,198.0,43.0,0,0.61,672.0,0.0,17
3104,25386625,158.0,188.0,32.0,0,0.581,672.0,0.0,17
3105,25394621,144.0,177.0,22.0,0,0.542,672.0,0.0,17
3106,25402622,144.0,169.0,12.0,0,0.517,672.0,0.0,17
3107,25410625,139.0,162.0,3.0,0,0.481,672.0,0.0,17
3108,25418625,136.0,156.0,-6.0,0,0.495,672.0,0.0,17
3109,25426625,132.0,150.0,-13.0,0,0.479,672.0,0.0,17
3110,25434625,133.0,146.0,-20.0,0,0.497,672.0,0.0,17
3111,25442625,131.0,142.0,-25.0,0,0.473,672.0,0.0,17
3112,25450621,127.0,139.0,-30.0,0,0.486,672.0,0.0,17
3113,25458623,127.0,136.0,-34.0,0,0.478,672.0,0.0,17
3114,25466623,126.0,133.0,-38.0,0,0.488,672.0,0.0,17
3115,25474622,127.0,132.0,-41.0,0,0.477,672.0,0.0,17
3116,25482625,121.0,129.0,-44.0,0,0.485,672.0,0.0,17
3117,25490621,117.0,126.0,-46.0,0,0.471,672.0,0.0,17
3118,25498625,120.0,125.0,-49.0,0,0.498,672.0,0.0,17
3119,25506622,121.0,124.0,-50.0,0,0.462,672.0,0.0,17
3120,25514625,116.0,122.0,-52.0,0,0.486,672.0,0.0,17
3121,25522624,116.0,120.0,-54.0,0,0.492,672.0,0.0,17
3122,25530623,115.0,119.0,-55.0,0,0.475,672.0,0.0,17
3123,25538623,110.0,117.0,-56.0,0,0.478,672.0,0.0,17
3124,25546622,104.0,114.0,-58.0,0,0.502,672.0,0.0,17
3125,25554625,103.0,111.0,-60.0,0,0.507,672.0,0.0,17
3126,25562623,100.0,108.0,-62.0,0,0.512,672.0,0.0,17
3127,25570625,99.0,106.0,-64.0,0,0.517,672.0,0.0,17
3128,25578622,95.0,103.0,-66.0,0,0.522,672.0,0.0,17
3129,25586625,92.0,101.0,-68.0,0,0.527,672.0,0.0,17
3130,25594625,95.0,99.0,-70.0,0,0.532,672.0,0.0,17
3131,25602624,95.0,98.0,-72.0,0,0.537,672.0,0.0,17
3132,25610625,91.0,97.0,-73.0,0,0.521,672.0,0.0,17
3133,25618625,92.0,95.0,-74.0,0,0.523,672.0,0.0,17
3134,25626625,93.0,95.0,-75.0,0,0.525,672.0,0.0,17
3135,25634621,96.0,95.0,-75.0,1,0.507,672.0,0.0,17
3136,25642622,93.0,95.0,-76.0,0,0.527,672.0,0.0,17
3137,25650624,96.0,95.0,-75.0,1,0.525,672.0,0.0,17
3138,25658620,95.0,95.0,-75.0,1,0.506,672.0,0.0,17
3139,25666625,94.0,95.0,-75.0,0,0.506,672.0,0.0,17
3140,25674625,91.0,94.0,-75.0,0,0.506,672.0,0.0,17
3141,25682625,90.0,93.0,-75.0,0,0.506,672.0,0.0,17
3142,25690621,89.0,92.0,-75.0,0,0.506,672.0,0.0,17
3143,25698625,93.0,92.0,-75.0,0,0.506,672.0,0.0,17
3144,25706621,90.0,92.0,-75.0,0,0.506,672.0,0.0,17
3145,25714620,85.0,90.0,-75.0,0,0.506,672.0,0.0,17
3146,25722625,88.0,90.0,-76.0,0,0.526,672.0,0.0,17
3147,25730624,88.0,89.0,-76.0,1,0.508,672.0,0.0,17
3148,25738625,85.0,88.0,-76.0,0,0.508,672.0,0.0,17
3149,25746621,88.0,88.0,-76.0,0,0.508,672.0,0.0,17
3150,25754621,85.0,87.0,-76.0,0,0.508,672.0,0.0,17
3151,25762625,85.0,87.0,-76.0,0,0.508,672.0,0.0,17
3152,25770622,85.0,86.0,-76.0,0,0.508,672.0,0.0,17
3153,25778625,88.0,87.0,-76.0,0,0.507,672.0,0.0,17
3154,25786625,85.0,86.0,-76.0,0,0.507,672.0,0.0,17
3155,25794625,90.0,87.0,-75.0,0,0.522,672.0,0.0,17
3156,25802625,93.0,89.0,-74.0,0,0.52,672.0,0.0,17
3157,25810625,97.0,91.0,-73.0,0,0.517,672.0,0.0,17
3158,25818625,97.0,92.0,-71.0,0,0.53,672.0,0.0,17
3159,25826621,100.0,94.0,-70.0,0,0.509,672.0,0.0,17
3160,25834625,101.0,96.0,-68.0,0,0.522,672.0,0.0,17
3161,25842623,100.0,97.0,-66.0,0,0.517,672.0,0.0,17
3162,25850620,107.0,99.0,-64.0,0,0.511,672.0,0.0,17
3163,25858623,108.0,101.0,-62.0,0,0.505,672.0,0.0,17
3164,25866622,108.0,103.0,-60.0,0,0.5,672.0,0.0,17
3165,25874623,108.0,104.0,-58.0,0,0.494,672.0,0.0,17
3166,25882621,114.0,107.0,-56.0,0,0.489,672.0,0.0,17
3167,25890622,120.0,110.0,-53.0,0,0.5,672.0,0.0,17
3168,25898624,132.0,115.0,-50.0,0,0.492,672.0,0.0,17
3169,25906620,143.0,122.0,-45.0,0,0.517,672.0,0.0,17
3170,25914625,157.0,130.0,-39.0,0,0.52,672.0,0.0,17
3171,25922625,176.0,141.0,-32.0,0,0.52,672.0,0.0,17
3172,25930625,192.0,154.0,-24.0,0,0.516,672.0,0.0,17
3173,25938625,212.0,168.0,-13.0,0,0.531,672.0,0.0,17
3174,25946623,232.0,183.0,-2.0,0,0.505,672.0,0.0,17
3175,25954625,251.0,200.0,11.0,0,0.555,672.0,0.0,17
3176,25962621,271.0,217.0,25.0,0,0.598,672.0,0.0,17
3177,25970624,291.0,235.0,40.0,0,0.645,672.0,0.0,17
3178,25978625,302.0,251.0,56.0,0,0.693,672.0,0.0,17
3179,25986625,320.0,268.0,71.0,0,0.725,672.0,0.0,17
3180,25994625,326.0,282.0,86.0,0,0.762,672.0,0.0,17
3181,26002621,338.0,296.0,100.0,0,0.785,672.0,0.0,17
3182,26010621,343.0,307.0,113.0,0,0.802,672.0,0.0,17
3183,26018621,342.0,316.0,125.0,0,0.812,672.0,0.0,17
3184,26026621,345.0,323.0,135.0,0,0.804,672.0,0.0,17
3185,26034621,342.0,327.0,143.0,0,0.785,672.0,0.0,17
3186,26042622,338.0,330.0,149.0,0,0.758,672.0,0.0,17
3187,26050625,339.0,332.0,154.0,0,0.745,672.0,0.0,17
3188,26058625,334.0,333.0,157.0,0,0.711,672.0,0.0,17
3189,26066625,325.0,331.0,158.0,0,0.674,672.0,0.0,17
3190,26074625,314.0,327.0,158.0,1,0.657,672.0,0.0,17
3191,26082623,303.0,321.0,156.0,0,0.69,672.0,0.0,17
3192,26090625,292.0,314.0,152.0,0,0.723,672.0,0.0,17
3193,26098625,279.0,305.0,146.0,0,0.753,672.0,0.0,17
3194,26106625,266.0,296.0,140.0,0,0.744,672.0,0.0,17
3195,26114620,252.0,285.0,131.0,0,0.781,672.0,0.0,17
3196,26122625,236.0,273.0,122.0,0,0.766,672.0,0.0,17
3197,26130624,223.0,261.0,112.0,0,0.762,672.0,0.0,17
3198,26138621,209.0,248.0,101.0,0,0.753,672.0,0.0,17
3199,26146624,196.0,236.0,89.0,0,0.738,672.0,0.0,17
3200,26154623,184.0,223.0,77.0,0,0.709,672.0,0.0,17
3201,26162622,174.0,211.0,65.0,0,0.679,672.0,0.0,17
3202,26170622,161.0,199.0,53.0,0,0.647,672.0,0.0,17
3203,26178625,155.0,188.0,41.0,0,0.616,672.0,0.0,17
3204,26186622,149.0,179.0,30.0,0,0.575,672.0,0.0,17
3205,26194622,140.0,169.0,19.0,0,0.548,672.0,0.0,17
3206,26202625,127.0,159.0,9.0,0,0.51,672.0,0.0,17
3207,26210625,124.0,151.0,-1.0,0,0.487,672.0,0.0,17
3208,26218621,123.0,144.0,-10.0,0,0.492,672.0,0.0,17
3209,26226625,114.0,137.0,-19.0,0,0.514,672.0,0.0,17
3210,26234625,115.0,131.0,-26.0,0,0.499,672.0,0.0,17
3211,26242625,112.0,127.0,-33.0,0,0.517,672.0,0.0,17
3212,26250621,108.0,122.0,-38.0,0,0.494,672.0,0.0,17
3213,26258624,108.0,119.0,-43.0,0,0.507,672.0,0.0,17
3214,26266625,106.0,116.0,-48.0,0,0.52,672.0,0.0,17
3215,26274622,106.0,113.0,-52.0,0,0.512,672.0,0.0,17
3216,26282625,105.0,111.0,-55.0,0,0.5,672.0,0.0,17
3217,26290622,106.0,110.0,-57.0,0,0.487,672.0,0.0,17
3218,26298625,102.0,108.0,-59.0,0,0.492,672.0,0.0,17
3219,26306622,108.0,108.0,-61.0,0,0.497,672.0,0.0,17
3220,26314625,104.0,107.0,-62.0,0,0.482,672.0,0.0,17
3221,26322621,104.0,106.0,-63.0,0,0.484,672.0,0.0,17
3222,26330625,107.0,106.0,-63.0,1,0.467,672.0,0.0,17
3223,26338624,108.0,107.0,-63.0,0,0.467,672.0,0.0,17
3224,26346625,105.0,106.0,-64.0,0,0.487,672.0,0.0,17
3225,26354625,110.0,107.0,-63.0,1,0.484,672.0,0.0,17
3226,26362623,108.0,107.0,-63.0,1,0.467,672.0,0.0,17
3227,26370625,107.0,107.0,-63.0,0,0.467,672.0,0.0,17
3228,26378625,105.0,107.0,-62.0,0,0.481,672.0,0.0,17
3229,26386625,108.0,107.0,-62.0,1,0.464,672.0,0.0,17
3230,26394625,106.0,107.0,-62.0,0,0.464,672.0,0.0,17
3231,26402621,108.0,107.0,-61.0,0,0.479,672.0,0.0,17
3232,26410623,108.0,107.0,-61.0,1,0.462,672.0,0.0,17
3233,26418625,106.0,107.0,-60.0,0,0.476,672.0,0.0,17
3234,26426622,110.0,108.0,-60.0,1,0.459,672.0,0.0,17
3235,26434625,108.0,108.0,-59.0,0,0.474,672.0,0.0,17
3236,26442625,102.0,106.0,-59.0,1,0.457,672.0,0.0,17
3237,26450625,102.0,105.0,-59.0,0,0.457,672.0,0.0,17
3238,26458625,102.0,105.0,-60.0,0,0.477,672.0,0.0,17
3239,26466624,98.0,103.0,-60.0,1,0.46,672.0,0.0,17
3240,26474622,96.0,101.0,-61.0,0,0.48,672.0,0.0,17
3241,26482625,96.0,100.0,-61.0,1,0.463,672.0,0.0,17
3242,26490624,94.0,99.0,-62.0,0,0.483,672.0,0.0,17
3243,26498625,92.0,97.0,-63.0,0,0.485,672.0,0.0,17
3244,26506620,91.0,96.0,-64.0,0,0.488,672.0,0.0,17
3245,26514620,92.0,95.0,-65.0,0,0.491,672.0,0.0,17
3246,26522621,92.0,94.0,-66.0,0,0.493,672.0,0.0,17
3247,26530625,93.0,94.0,-66.0,1,0.476,672.0,0.0,17
3248,26538622,97.0,95.0,-66.0,0,0.476,672.0,0.0,17
3249,26546625,108.0,98.0,-65.0,0,0.491,672.0,0.0,17
3250,26554620,107.0,100.0,-63.0,0,0.503,672.0,0.0,17
3251,26562623,114.0,103.0,-61.0,0,0.498,672.0,0.0,17
3252,26570624,110.0,105.0,-59.0,0,0.493,672.0,0.0,17
3253,26578625,114.0,107.0,-57.0,0,0.488,672.0,0.0,17
3254,26586625,122.0,111.0,-54.0,0,0.498,672.0,0.0,17
3255,26594623,120.0,113.0,-51.0,0,0.49,672.0,0.0,17
3256,26602620,122.0,115.0,-49.0,0,0.466,672.0,0.0,17
3257,26610622,124.0,117.0,-46.0,0,0.477,672.0,0.0,17
3258,26618623,127.0,120.0,-44.0,0,0.453,672.0,0.0,17
3259,26626622,127.0,121.0,-41.0,0,0.464,672.0,0.0,17
3260,26634620,124.0,122.0,-39.0,0,0.44,672.0,0.0,17
3261,26642622,127.0,123.0,-38.0,0,0.42,672.0,0.0,17
3262,26650625,125.0,124.0,-36.0,0,0.432,672.0,0.0,17
3263,26658624,132.0,126.0,-34.0,0,0.427,672.0,0.0,17
3264,26666625,131.0,127.0,-33.0,0,0.407,672.0,0.0,17
3265,26674625,125.0,127.0,-32.0,0,0.404,672.0,0.0,17
3266,26682625,126.0,126.0,-31.0,0,0.401,672.0,0.0,17
3267,26690620,125.0,126.0,-30.0,0,0.399,672.0,0.0,17
3268,26698625,134.0,128.0,-29.0,0,0.396,672.0,0.0,17
3269,26706625,132.0,129.0,-28.0,0,0.394,672.0,0.0,17
3270,26714625,136.0,131.0,-27.0,0,0.391,672.0,0.0,17
3271,26722621,136.0,132.0,-26.0,0,0.388,672.0,0.0,17
3272,26730621,138.0,133.0,-24.0,0,0.401,672.0,0.0,17
3273,26738625,140.0,135.0,-23.0,0,0.381,672.0,0.0,17
3274,26746625,143.0,137.0,-21.0,0,0.394,672.0,0.0,17
3275,26754623,144.0,139.0,-20.0,0,0.373,672.0,0.0,17
3276,26762625,141.0,139.0,-18.0,0,0.386,672.0,0.0,17
3277,26770622,147.0,141.0,-17.0,0,0.366,672.0,0.0,17
3278,26778624,145.0,142.0,-15.0,0,0.379,672.0,0.0,17
3279,26786625,150.0,144.0,-14.0,0,0.358,672.0,0.0,17
3280,26794624,154.0,146.0,-12.0,0,0.371,672.0,0.0,17
3281,26802625,152.0,148.0,-10.0,0,0.367,672.0,0.0,17
3282,26810623,154.0,149.0,-8.0,0,0.362,672.0,0.0,17
3283,26818625,156.0,151.0,-7.0,0,0.342,672.0,0.0,17
3284,26826625,156.0,152.0,-5.0,0,0.355,672.0,0.0,17
3285,26834621,157.0,153.0,-4.0,0,0.335,672.0,0.0,17
3286,26842625,156.0,154.0,-3.0,0,0.332,672.0,0.0,17
3287,26850622,159.0,155.0,-1.0,0,0.349,672.0,0.0,17
3288,26858625,155.0,155.0,0.0,0,0.333,672.0,0.0,17
3289,26866623,159.0,156.0,0.0,1,0.316,672.0,0.0,17
3290,26874621,156.0,156.0,1.0,0,0.336,672.0,0.0,17
3291,26882625,161.0,157.0,2.0,0,0.338,672.0,0.0,17
3292,26890621,156.0,157.0,2.0,1,0.321,672.0,0.0,17
3293,26898623,156.0,157.0,2.0,0,0.322,672.0,0.0,17
3294,26906625,160.0,158.0,3.0,0,0.343,672.0,0.0,17
3295,26914625,164.0,159.0,4.0,0,0.346,672.0,0.0,17
3296,26922620,169.0,161.0,5.0,0,0.35,672.0,0.0,17
3297,26930621,176.0,165.0,7.0,0,0.375,672.0,0.0,17
3298,26938621,183.0,169.0,9.0,0,0.382,672.0,0.0,17
3299,26946621,200.0,177.0,13.0,0,0.435,672.0,0.0,17
3300,26954623,212.0,185.0,18.0,0,0.47,672.0,0.0,17
3301,26962623,235.0,197.0,25.0,0,0.53,672.0,0.0,17
3302,26970623,259.0,212.0,34.0,0,0.59,672.0,0.0,17
3303,26978623,277.0,228.0,45.0,0,0.65,672.0,0.0,17
3304,26986623,297.0,245.0,58.0,0,0.709,672.0,0.0,17
3305,26994625,321.0,263.0,72.0,0,0.757,672.0,0.0,17
3306,27002621,340.0,282.0,87.0,0,0.802,672.0,0.0,17
3307,27010623,360.0,301.0,103.0,0,0.844,672.0,0.0,17
3308,27018625,367.0,317.0,118.0,0,0.865,672.0,0.0,17
3309,27026623,383.0,333.0,134.0,0,0.894,672.0,0.0,17
3310,27034623,394.0,348.0,149.0,0,0.905,672.0,0.0,17
3311,27042625,396.0,359.0,162.0,0,0.899,672.0,0.0,17
3312,27050622,399.0,369.0,174.0,0,0.897,672.0,0.0,17
3313,27058623,399.0,376.0,185.0,0,0.892,672.0,0.0,17
3314,27066625,393.0,380.0,193.0,0,0.852,672.0,0.0,17
3315,27074625,389.0,382.0,199.0,0,0.819,672.0,0.0,17
3316,27082625,383.0,383.0,203.0,0,0.782,672.0,0.0,17
3317,27090625,378.0,381.0,205.0,0,0.744,672.0,0.0,17
3318,27098623,372.0,379.0,205.0,1,0.706,672.0,0.0,17
3319,27106625,363.0,375.0,204.0,0,0.723,672.0,0.0,17
3320,27114625,351.0,369.0,201.0,0,0.758,672.0,0.0,17
3321,27122620,340.0,362.0,196.0,0,0.794,672.0,0.0,17
3322,27130623,323.0,353.0,190.0,0,0.809,672.0,0.0,17
3323,27138625,312.0,343.0,183.0,0,0.821,672.0,0.0,17
3324,27146625,301.0,333.0,174.0,0,0.846,672.0,0.0,17
3325,27154623,287.0,322.0,164.0,0,0.849,672.0,0.0,17
3326,27162625,275.0,310.0,154.0,0,0.836,672.0,0.0,17
3327,27170625,268.0,300.0,144.0,0,0.821,672.0,0.0,17
3328,27178625,252.0,288.0,133.0,0,0.816,672.0,0.0,17
3329,27186621,237.0,276.0,121.0,0,0.805,672.0,0.0,17
3330,27194625,228.0,264.0,109.0,0,0.78,672.0,0.0,17
3331,27202623,218.0,253.0,97.0,0,0.753,672.0,0.0,17
3332,27210625,204.0,241.0,86.0,0,0.715,672.0,0.0,17
3333,27218623,195.0,230.0,74.0,0,0.696,672.0,0.0,17
3334,27226625,185.0,219.0,62.0,0,0.664,672.0,0.0,17
3335,27234625,176.0,209.0,51.0,0,0.623,672.0,0.0,17
3336,27242625,166.0,198.0,40.0,0,0.593,672.0,0.0,17
3337,27250625,163.0,190.0,29.0,0,0.564,672.0,0.0,17
3338,27258625,163.0,183.0,20.0,0,0.514,672.0,0.0,17
3339,27266625,155.0,176.0,12.0,0,0.479,672.0,0.0,17
3340,27274625,151.0,170.0,4.0,0,0.46,672.0,0.0,17
3341,27282621,150.0,165.0,-3.0,0,0.453,672.0,0.0,17
3342,27290625,147.0,161.0,-9.0,0,0.449,672.0,0.0,17
3343,27298625,144.0,157.0,-15.0,0,0.464,672.0,0.0,17
3344,27306623,143.0,153.0,-20.0,0,0.458,672.0,0.0,17
3345,27314623,139.0,150.0,-24.0,0,0.449,672.0,0.0,17
3346,27322622,132.0,146.0,-28.0,0,0.46,672.0,0.0,17
3347,27330625,129.0,142.0,-33.0,0,0.492,672.0,0.0,17
3348,27338621,124.0,137.0,-37.0,0,0.484,672.0,0.0,17
3349,27346623,121.0,133.0,-41.0,0,0.495,672.0,0.0,17
3350,27354621,120.0,130.0,-44.0,0,0.484,672.0,0.0,17
3351,27362625,118.0,127.0,-48.0,0,0.514,672.0,0.0,17
3352,27370625,112.0,124.0,-51.0,0,0.503,672.0,0.0,17
3353,27378621,110.0,120.0,-54.0,0,0.511,672.0,0.0,17
3354,27386623,107.0,117.0,-57.0,0,0.52,672.0,0.0,17
3355,27394625,104.0,114.0,-60.0,0,0.528,672.0,0.0,17
3356,27402625,96.0,110.0,-63.0,0,0.536,672.0,0.0,17
3357,27410625,92.0,105.0,-67.0,0,0.565,672.0,0.0,17
3358,27418621,90.0,102.0,-70.0,0,0.554,672.0,0.0,17
3359,27426625,84.0,97.0,-73.0,0,0.561,672.0,0.0,17
3360,27434625,79.0,93.0,-77.0,0,0.59,672.0,0.0,17
3361,27442625,72.0,88.0,-81.0,0,0.599,672.0,0.0,17
3362,27450625,74.0,84.0,-84.0,0,0.587,672.0,0.0,17
3363,27458625,69.0,81.0,-88.0,0,0.615,672.0,0.0,17
3364,27466625,68.0,78.0,-91.0,0,0.603,672.0,0.0,17
3365,27474625,62.0,74.0,-94.0,0,0.609,672.0,0.0,17
3366,27482625,68.0,72.0,-96.0,0,0.594,672.0,0.0,17
3367,27490625,63.0,70.0,-99.0,0,0.618,672.0,0.0,17
3368,27498625,57.0,67.0,-101.0,0,0.604,672.0,0.0,17
3369,27506625,61.0,66.0,-103.0,0,0.607,672.0,0.0,17
3370,27514625,61.0,64.0,-104.0,0,0.59,672.0,0.0,17
3371,27522625,60.0,63.0,-105.0,0,0.592,672.0,0.0,17
3372,27530625,61.0,63.0,-106.0,0,0.593,672.0,0.0,17
3373,27538625,66.0,64.0,-106.0,1,0.575,672.0,0.0,17
3374,27546623,69.0,65.0,-106.0,0,0.574,672.0,0.0,17
3375,27554621,72.0,67.0,-105.0,0,0.588,672.0,0.0,17
3376,27562623,76.0,69.0,-103.0,0,0.601,672.0,0.0,17
3377,27570623,77.0,71.0,-101.0,0,0.596,672.0,0.0,17
3378,27578625,80.0,73.0,-99.0,0,0.591,672.0,0.0,17
3379,27586625,83.0,75.0,-97.0,0,0.586,672.0,0.0,17
3380,27594622,84.0,78.0,-94.0,0,0.597,672.0,0.0,17
3381,27602625,86.0,80.0,-92.0,0,0.574,672.0,0.0,17
3382,27610625,93.0,83.0,-89.0,0,0.585,672.0,0.0,17
3383,27618625,94.0,86.0,-86.0,0,0.577,672.0,0.0,17
3384,27626623,99.0,89.0,-83.0,0,0.569,672.0,0.0,17
3385,27634625,100.0,92.0,-79.0,0,0.578,672.0,0.0,17
3386,27642625,100.0,94.0,-76.0,0,0.552,672.0,0.0,17
3387,27650622,103.0,96.0,-73.0,0,0.544,672.0,0.0,17
3388,27658625,103.0,98.0,-71.0,0,0.52,672.0,0.0,17
3389,27666623,103.0,99.0,-68.0,0,0.53,672.0,0.0,17
3390,27674625,108.0,101.0,-66.0,0,0.507,672.0,0.0,17
3391,27682625,108.0,103.0,-63.0,0,0.517,672.0,0.0,17
3392,27690625,107.0,104.0,-61.0,0,0.493,672.0,0.0,17
3393,27698625,111.0,106.0,-59.0,0,0.488,672.0,0.0,17
3394,27706622,112.0,107.0,-57.0,0,0.482,672.0,0.0,17
3395,27714620,112.0,108.0,-55.0,0,0.477,672.0,0.0,17
3396,27722625,109.0,108.0,-54.0,0,0.456,672.0,0.0,17
3397,27730625,116.0,110.0,-52.0,0,0.468,672.0,0.0,17
3398,27738625,117.0,112.0,-50.0,0,0.463,672.0,0.0,17
3399,27746625,121.0,114.0,-48.0,0,0.457,672.0,0.0,17
3400,27754625,120.0,116.0,-47.0,0,0.435,672.0,0.0,17
3401,27762625,120.0,117.0,-45.0,0,0.448,672.0,0.0,17
3402,27770625,124.0,118.0,-43.0,0,0.443,672.0,0.0,17
3403,27778620,126.0,120.0,-41.0,0,0.437,672.0,0.0,17
3404,27786624,132.0,123.0,-39.0,0,0.431,672.0,0.0,17
3405,27794625,139.0,127.0,-36.0,0,0.443,672.0,0.0,17
3406,27802621,140.0,130.0,-33.0,0,0.434,672.0,0.0,17
3407,27810625,145.0,134.0,-30.0,0,0.426,672.0,0.0,17
3408,27818625,150.0,138.0,-27.0,0,0.417,672.0,0.0,17
3409,27826620,153.0,141.0,-23.0,0,0.427,672.0,0.0,17
3410,27834625,156.0,145.0,-20.0,0,0.398,672.0,0.0,17
3411,27842625,160.0,149.0,-16.0,0,0.408,672.0,0.0,17
3412,27850623,161.0,152.0,-13.0,0,0.38,672.0,0.0,17
3413,27858625,164.0,155.0,-9.0,0,0.39,672.0,0.0,17
3414,27866622,165.0,157.0,-6.0,0,0.377,672.0,0.0,17
3415,27874625,169.0,160.0,-3.0,0,0.385,672.0,0.0,17
3416,27882623,169.0,162.0,0.0,0,0.393,672.0,0.0,17
3417,27890623,172.0,165.0,2.0,0,0.379,672.0,0.0,17
3418,27898624,177.0,168.0,5.0,0,0.408,672.0,0.0,17
3419,27906625,183.0,171.0,8.0,0,0.417,672.0,0.0,17
3420,27914625,191.0,176.0,11.0,0,0.425,672.0,0.0,17
3421,27922623,200.0,182.0,16.0,0,0.48,672.0,0.0,17
3422,27930623,215.0,190.0,21.0,0,0.495,672.0,0.0,17
3423,27938625,228.0,199.0,27.0,0,0.532,672.0,0.0,17
3424,27946625,243.0,210.0,34.0,0,0.57,672.0,0.0,17
3425,27954625,258.0,221.0,43.0,0,0.629,672.0,0.0,17
3426,27962625,276.0,235.0,53.0,0,0.67,672.0,0.0,17
3427,27970620,295.0,249.0,63.0,0,0.696,672.0,0.0,17
3428,27978622,308.0,264.0,75.0,0,0.748,672.0,0.0,17
3429,27986623,323.0,278.0,87.0,0,0.775,672.0,0.0,17
3430,27994625,334.0,292.0,100.0,0,0.81,672.0,0.0,17
3431,28002624,344.0,304.0,112.0,0,0.82,672.0,0.0,17
3432,28010622,351.0,316.0,124.0,0,0.838,672.0,0.0,17
3433,28018623,355.0,325.0,134.0,0,0.826,672.0,0.0,17
3434,28026625,359.0,333.0,144.0,0,0.837,672.0,0.0,17
3435,28034622,361.0,340.0,153.0,0,0.831,672.0,0.0,17
3436,28042625,360.0,345.0,160.0,0,0.803,672.0,0.0,17
3437,28050623,357.0,348.0,165.0,0,0.768,672.0,0.0,17
3438,28058625,353.0,349.0,169.0,0,0.75,672.0,0.0,17
3439,28066623,343.0,348.0,171.0,0,0.71,672.0,0.0,17
3440,28074625,335.0,345.0,172.0,0,0.69,672.0,0.0,17
3441,28082625,331.0,341.0,171.0,1,0.687,672.0,0.0,17
3442,28090625,320.0,336.0,168.0,0,0.722,672.0,0.0,17
3443,28098625,314.0,331.0,164.0,0,0.736,672.0,0.0,17
3444,28106622,300.0,323.0,159.0,0,0.748,672.0,0.0,17
3445,28114625,290.0,315.0,153.0,0,0.758,672.0,0.0,17
3446,28122625,277.0,306.0,146.0,0,0.766,672.0,0.0,17
3447,28130623,267.0,297.0,138.0,0,0.769,672.0,0.0,17
3448,28138625,249.0,285.0,129.0,0,0.769,672.0,0.0,17
3449,28146623,237.0,273.0,118.0,0,0.774,672.0,0.0,17
3450,28154625,220.0,260.0,107.0,0,0.75,672.0,0.0,17
3451,28162625,205.0,247.0,96.0,0,0.725,672.0,0.0,17
3452,28170624,197.0,235.0,83.0,0,0.715,672.0,0.0,17
3453,28178625,188.0,224.0,72.0,0,0.666,672.0,0.0,17
3454,28186620,180.0,213.0,60.0,0,0.646,672.0,0.0,17
3455,28194625,171.0,203.0,49.0,0,0.606,672.0,0.0,17
3456,28202625,165.0,194.0,38.0,0,0.578,672.0,0.0,17
3457,28210625,161.0,186.0,28.0,0,0.539,672.0,0.0,17
3458,28218621,155.0,178.0,19.0,0,0.503,672.0,0.0,17
3459,28226625,148.0,171.0,10.0,0,0.482,672.0,0.0,17
3460,28234625,146.0,165.0,2.0,0,0.463,672.0,0.0,17
3461,28242621,144.0,160.0,-5.0,0,0.462,672.0,0.0,17
3462,28250625,140.0,155.0,-11.0,0,0.458,672.0,0.0,17
3463,28258625,133.0,150.0,-17.0,0,0.472,672.0,0.0,17
3464,28266625,133.0,146.0,-22.0,0,0.466,672.0,0.0,17
3465,28274621,131.0,142.0,-27.0,0,0.479,672.0,0.0,17
3466,28282624,127.0,138.0,-31.0,0,0.47,672.0,0.0,17
3467,28290625,124.0,135.0,-35.0,0,0.481,672.0,0.0,17
3468,28298621,125.0,133.0,-39.0,0,0.491,672.0,0.0,17
3469,28306622,119.0,129.0,-42.0,0,0.48,672.0,0.0,17
3470,28314621,114.0,126.0,-46.0,0,0.509,672.0,0.0,17
3471,28322625,109.0,122.0,-49.0,0,0.499,672.0,0.0,17
3472,28330623,111.0,119.0,-52.0,0,0.506,672.0,0.0,17
3473,28338622,108.0,116.0,-55.0,0,0.514,672.0,0.0,17
3474,28346622,100.0,112.0,-58.0,0,0.522,672.0,0.0,17
3475,28354625,101.0,110.0,-61.0,0,0.529,672.0,0.0,17
3476,28362623,97.0,107.0,-63.0,0,0.516,672.0,0.0,17
3477,28370625,96.0,104.0,-66.0,0,0.542,672.0,0.0,17
3478,28378625,93.0,101.0,-68.0,0,0.528,672.0,0.0,17
3479,28386625,88.0,98.0,-71.0,0,0.554,672.0,0.0,17
3480,28394625,91.0,96.0,-73.0,0,0.54,672.0,0.0,17
3481,28402622,87.0,94.0,-75.0,0,0.545,672.0,0.0,17
3482,28410625,86.0,92.0,-77.0,0,0.55,672.0,0.0,17
3483,28418623,92.0,92.0,-78.0,0,0.534,672.0,0.0,17
3484,28426620,87.0,91.0,-79.0,0,0.536,672.0,0.0,17
3485,28434625,91.0,91.0,-80.0,0,0.538,672.0,0.0,17
3486,28442621,91.0,91.0,-80.0,1,0.521,672.0,0.0,17
3487,28450623,91.0,91.0,-80.0,0,0.521,672.0,0.0,17
3488,28458625,91.0,91.0,-80.0,0,0.52,672.0,0.0,17
3489,28466625,95.0,92.0,-79.0,0,0.534,672.0,0.0,17
3490,28474621,93.0,92.0,-79.0,1,0.517,672.0,0.0,17
3491,28482625,92.0,92.0,-78.0,0,0.531,672.0,0.0,17
3492,28490625,91.0,92.0,-78.0,1,0.514,672.0,0.0,17
3493,28498625,91.0,92.0,-77.0,0,0.528,672.0,0.0,17
3494,28506621,90.0,91.0,-77.0,1,0.51,672.0,0.0,17
3495,28514625,93.0,92.0,-77.0,0,0.509,672.0,0.0,17
3496,28522625,90.0,91.0,-76.0,0,0.523,672.0,0.0,17
3497,28530625,96.0,92.0,-75.0,0,0.52,672.0,0.0,17
3498,28538621,99.0,94.0,-74.0,0,0.517,672.0,0.0,17
3499,28546622,98.0,95.0,-73.0,0,0.514,672.0,0.0,17
3500,28554624,102.0,97.0,-72.0,0,0.51,672.0,0.0,17
3501,28562621,108.0,99.0,-70.0,0,0.524,672.0,0.0,17
3502,28570624,110.0,102.0,-67.0,0,0.536,672.0,0.0,17
3503,28578625,112.0,104.0,-65.0,0,0.51,672.0,0.0,17
3504,28586623,112.0,106.0,-63.0,0,0.504,672.0,0.0,17
3505,28594625,113.0,108.0,-60.0,0,0.516,672.0,0.0,17
3506,28602625,114.0,109.0,-58.0,0,0.49,672.0,0.0,17
3507,28610625,115.0,111.0,-56.0,0,0.484,672.0,0.0,17
3508,28618625,113.0,111.0,-55.0,0,0.461,672.0,0.0,17
3509,28626621,118.0,113.0,-53.0,0,0.475,672.0,0.0,17
3510,28634623,126.0,116.0,-50.0,0,0.487,672.0,0.0,17
3511,28642625,126.0,118.0,-48.0,0,0.46,672.0,0.0,17
3512,28650623,132.0,122.0,-45.0,0,0.472,672.0,0.0,17
3513,28658622,127.0,123.0,-43.0,0,0.445,672.0,0.0,17
3514,28666625,130.0,125.0,-41.0,0,0.439,672.0,0.0,17
3515,28674625,132.0,126.0,-39.0,0,0.433,672.0,0.0,17
3516,28682620,132.0,128.0,-37.0,0,0.427,672.0,0.0,17
3517,28690625,127.0,128.0,-35.0,0,0.421,672.0,0.0,17
3518,28698624,127.0,127.0,-34.0,0,0.397,672.0,0.0,17
3519,28706621,127.0,127.0,-33.0,0,0.394,672.0,0.0,17
3520,28714623,127.0,127.0,-33.0,1,0.374,672.0,0.0,17
3521,28722621,131.0,128.0,-32.0,0,0.39,672.0,0.0,17
3522,28730622,139.0,131.0,-31.0,0,0.387,672.0,0.0,17
3523,28738623,137.0,132.0,-29.0,0,0.402,672.0,0.0,17
3524,28746625,146.0,136.0,-27.0,0,0.397,672.0,0.0,17
3525,28754620,154.0,140.0,-25.0,0,0.392,672.0,0.0,17
3526,28762625,158.0,144.0,-21.0,0,0.426,672.0,0.0,17
3527,28770625,171.0,151.0,-17.0,0,0.416,672.0,0.0,17
3528,28778623,184.0,159.0,-12.0,0,0.427,672.0,0.0,17
3529,28786625,203.0,170.0,-5.0,0,0.469,672.0,0.0,17
3530,28794623,218.0,181.0,3.0,0,0.506,672.0,0.0,17
3531,28802625,232.0,194.0,12.0,0,0.544,672.0,0.0,17
3532,28810625,251.0,208.0,23.0,0,0.598,672.0,0.0,17
3533,28818621,272.0,223.0,35.0,0,0.639,672.0,0.0,17
3534,28826624,283.0,238.0,47.0,0,0.67,672.0,0.0,17
3535,28834625,299.0,253.0,60.0,0,0.711,672.0,0.0,17
3536,28842625,310.0,266.0,73.0,0,0.742,672.0,0.0,17
3537,28850625,320.0,279.0,86.0,0,0.771,672.0,0.0,17
3538,28858620,324.0,290.0,98.0,0,0.786,672.0,0.0,17
3539,28866622,335.0,301.0,109.0,0,0.794,672.0,0.0,17
3540,28874622,336.0,310.0,120.0,0,0.812,672.0,0.0,17
3541,28882624,333.0,315.0,128.0,0,0.78,672.0,0.0,17
3542,28890623,329.0,319.0,135.0,0,0.771,672.0,0.0,17
3543,28898625,326.0,320.0,140.0,0,0.737,672.0,0.0,17
3544,28906625,320.0,320.0,144.0,0,0.72,672.0,0.0,17
3545,28914621,316.0,319.0,145.0,0,0.658,672.0,0.0,17
3546,28922625,308.0,317.0,146.0,0,0.658,672.0,0.0,17
3547,28930625,296.0,312.0,144.0,1,0.673,672.0,0.0,17
3548,28938622,289.0,306.0,141.0,0,0.688,672.0,0.0,17
3549,28946625,279.0,300.0,137.0,0,0.701,672.0,0.0,17
3550,28954625,272.0,293.0,132.0,0,0.712,672.0,0.0,17
3551,28962625,257.0,284.0,126.0,0,0.72,672.0,0.0,17
3552,28970625,250.0,276.0,118.0,0,0.74,672.0,0.0,17
3553,28978624,238.0,267.0,111.0,0,0.707,672.0,0.0,17
3554,28986625,221.0,256.0,102.0,0,0.72,672.0,0.0,17
3555,28994624,211.0,245.0,92.0,0,0.71,672.0,0.0,17
3556,29002625,198.0,233.0,82.0,0,0.685,672.0,0.0,17
3557,29010625,187.0,222.0,71.0,0,0.669,672.0,0.0,17
3558,29018625,175.0,211.0,60.0,0,0.64,672.0,0.0,17
3559,29026623,161.0,199.0,49.0,0,0.611,672.0,0.0,17
3560,29034625,156.0,188.0,38.0,0,0.582,672.0,0.0,17
3561,29042625,144.0,178.0,27.0,0,0.554,672.0,0.0,17
3562,29050625,139.0,168.0,17.0,0,0.517,672.0,0.0,17
3563,29058620,127.0,158.0,6.0,0,0.506,672.0,0.0,17
3564,29066625,127.0,151.0,-3.0,0,0.498,672.0,0.0,17
3565,29074625,120.0,143.0,-12.0,0,0.519,672.0,0.0,17
3566,29082625,117.0,137.0,-20.0,0,0.522,672.0,0.0,17
3567,29090625,115.0,132.0,-27.0,0,0.523,672.0,0.0,17
3568,29098624,109.0,126.0,-34.0,0,0.54,672.0,0.0,17
3569,29106623,108.0,122.0,-40.0,0,0.538,672.0,0.0,17
3570,29114623,108.0,118.0,-45.0,0,0.532,672.0,0.0,17
3571,29122621,108.0,116.0,-49.0,0,0.523,672.0,0.0,17
3572,29130622,108.0,114.0,-52.0,0,0.511,672.0,0.0,17
3573,29138625,106.0,112.0,-55.0,0,0.519,672.0,0.0,17
3574,29146625,104.0,110.0,-58.0,0,0.526,672.0,0.0,17
3575,29154625,106.0,109.0,-60.0,0,0.512,672.0,0.0,17
3576,29162625,103.0,108.0,-61.0,0,0.496,672.0,0.0,17
3577,29170623,102.0,106.0,-63.0,0,0.519,672.0,0.0,17
3578,29178625,103.0,105.0,-64.0,0,0.503,672.0,0.0,17
3579,29186625,107.0,106.0,-64.0,1,0.485,672.0,0.0,17
3580,29194625,106.0,106.0,-65.0,0,0.505,672.0,0.0,17
3581,29202623,107.0,106.0,-65.0,1,0.487,672.0,0.0,17
3582,29210625,108.0,107.0,-65.0,0,0.487,672.0,0.0,17
3583,29218625,108.0,107.0,-64.0,0,0.502,672.0,0.0,17
3584,29226625,108.0,107.0,-64.0,1,0.484,672.0,0.0,17
3585,29234625,107.0,107.0,-63.0,0,0.498,672.0,0.0,17
3586,29242625,105.0,107.0,-63.0,1,0.481,672.0,0.0,17
3587,29250621,109.0,107.0,-62.0,0,0.495,672.0,0.0,17
3588,29258625,109.0,108.0,-62.0,1,0.477,672.0,0.0,17
3589,29266625,114.0,109.0,-61.0,0,0.492,672.0,0.0,17
3590,29274625,111.0,110.0,-60.0,0,0.489,672.0,0.0,17
3591,29282625,113.0,110.0,-59.0,0,0.486,672.0,0.0,17
3592,29290623,116.0,112.0,-58.0,0,0.483,672.0,0.0,17
3593,29298621,112.0,112.0,-57.0,0,0.481,672.0,0.0,17
3594,29306623,117.0,113.0,-56.0,0,0.478,672.0,0.0,17
3595,29314625,116.0,114.0,-54.0,0,0.491,672.0,0.0,17
3596,29322625,117.0,115.0,-53.0,0,0.47,672.0,0.0,17
3597,29330625,117.0,115.0,-52.0,0,0.467,672.0,0.0,17
3598,29338624,116.0,115.0,-51.0,0,0.464,672.0,0.0,17
3599,29346625,118.0,116.0,-50.0,0,0.461,672.0,0.0,17
3600,29354623,116.0,116.0,-50.0,1,0.443,672.0,0.0,17
3601,29362625,118.0,116.0,-49.0,0,0.458,672.0,0.0,17
3602,29370625,116.0,116.0,-48.0,0,0.455,672.0,0.0,17
3603,29378624,119.0,117.0,-48.0,1,0.437,672.0,0.0,17
3604,29386625,115.0,117.0,-47.0,0,0.452,672.0,0.0,17
3605,29394620,116.0,116.0,-47.0,1,0.434,672.0,0.0,17
3606,29402625,116.0,116.0,-46.0,0,0.448,672.0,0.0,17
3607,29410623,114.0,116.0,-46.0,1,0.43,672.0,0.0,17
3608,29418625,112.0,115.0,-46.0,0,0.43,672.0,0.0,17
3609,29426625,114.0,115.0,-46.0,0,0.429,672.0,0.0,17
3610,29434625,112.0,114.0,-46.0,0,0.429,672.0,0.0,17
3611,29442625,114.0,114.0,-46.0,0,0.429,672.0,0.0,17
3612,29450625,113.0,114.0,-46.0,0,0.428,672.0,0.0,17
3613,29458625,116.0,114.0,-46.0,0,0.428,672.0,0.0,17
3614,29466625,117.0,115.0,-46.0,0,0.427,672.0,0.0,17
3615,29474625,119.0,116.0,-45.0,0,0.442,672.0,0.0,17
3616,29482625,122.0,117.0,-44.0,0,0.439,672.0,0.0,17
3617,29490625,123.0,119.0,-43.0,0,0.436,672.0,0.0,17
3618,29498623,124.0,120.0,-42.0,0,0.433,672.0,0.0,17
3619,29506623,126.0,121.0,-40.0,0,0.446,672.0,0.0,17
3620,29514625,124.0,122.0,-39.0,0,0.425,672.0,0.0,17
3621,29522625,127.0,123.0,-38.0,0,0.422,672.0,0.0,17
3622,29530623,132.0,125.0,-36.0,0,0.435,672.0,0.0,17
3623,29538623,133.0,127.0,-34.0,0,0.43,672.0,0.0,17
3624,29546621,139.0,130.0,-32.0,0,0.425,672.0,0.0,17
3625,29554621,142.0,133.0,-30.0,0,0.419,672.0,0.0,17
3626,29562625,146.0,136.0,-27.0,0,0.432,672.0,0.0,17
3627,29570625,150.0,139.0,-24.0,0,0.424,672.0,0.0,17
3628,29578624,161.0,145.0,-21.0,0,0.417,672.0,0.0,17
3629,29586620,174.0,152.0,-16.0,0,0.446,672.0,0.0,17
3630,29594623,188.0,161.0,-10.0,0,0.452,672.0,0.0,17
3631,29602625,208.0,172.0,-3.0,0,0.456,672.0,0.0,17
3632,29610625,224.0,185.0,6.0,0,0.504,672.0,0.0,17
3633,29618624,245.0,199.0,16.0,0,0.543,672.0,0.0,17
3634,29626625,264.0,215.0,28.0,0,0.598,672.0,0.0,17
3635,29634625,285.0,232.0,41.0,0,0.642,672.0,0.0,17
3636,29642625,305.0,250.0,55.0,0,0.688,672.0,0.0,17
3637,29650626,318.0,266.0,70.0,0,0.736,672.0,0.0,17
3638,29658621,332.0,282.0,85.0,0,0.774,672.0,0.0,17
3639,29666623,345.0,297.0,100.0,0,0.808,672.0,0.0,17
3640,29674620,354.0,311.0,114.0,0,0.83,672.0,0.0,17
3641,29682623,364.0,324.0,127.0,0,0.844,672.0,0.0,17
3642,29690625,370.0,335.0,140.0,0,0.863,672.0,0.0,17
3643,29698621,372.0,344.0,151.0,0,0.856,672.0,0.0,17
3644,29706625,374.0,351.0,160.0,0,0.838,672.0,0.0,17
3645,29714625,370.0,356.0,168.0,0,0.83,672.0,0.0,17
3646,29722623,364.0,358.0,174.0,0,0.799,672.0,0.0,17
3647,29730625,360.0,358.0,178.0,0,0.764,672.0,0.0,17
3648,29738621,356.0,358.0,180.0,0,0.726,672.0,0.0,17
3649,29746625,345.0,355.0,181.0,0,0.707,672.0,0.0,17
3650,29754623,334.0,350.0,179.0,1,0.724,672.0,0.0,17
3651,29762625,325.0,344.0,176.0,0,0.741,672.0,0.0,17
3652,29770624,314.0,336.0,172.0,0,0.757,672.0,0.0,17
3653,29778623,300.0,328.0,166.0,0,0.791,672.0,0.0,17
3654,29786625,290.0,319.0,158.0,0,0.818,672.0,0.0,17
3655,29794623,277.0,308.0,150.0,0,0.808,672.0,0.0,17
3656,29802625,261.0,297.0,141.0,0,0.811,672.0,0.0,17
3657,29810625,244.0,284.0,130.0,0,0.821,672.0,0.0,17
3658,29818625,233.0,272.0,119.0,0,0.801,672.0,0.0,17
3659,29826624,214.0,258.0,107.0,0,0.789,672.0,0.0,17
3660,29834621,197.0,243.0,94.0,0,0.769,672.0,0.0,17
3661,29842625,187.0,229.0,80.0,0,0.744,672.0,0.0,17
3662,29850624,172.0,216.0,67.0,0,0.702,672.0,0.0,17
3663,29858625,159.0,202.0,53.0,0,0.673,672.0,0.0,17
3664,29866621,150.0,189.0,40.0,0,0.629,672.0,0.0,17
3665,29874623,140.0,177.0,27.0,0,0.595,672.0,0.0,17
3666,29882625,131.0,166.0,14.0,0,0.562,672.0,0.0,17
3667,29890623,124.0,156.0,3.0,0,0.514,672.0,0.0,17
3668,29898625,116.0,146.0,-8.0,0,0.519,672.0,0.0,17
3669,29906623,112.0,138.0,-19.0,0,0.544,672.0,0.0,17
3670,29914625,109.0,131.0,-28.0,0,0.539,672.0,0.0,17
3671,29922625,112.0,126.0,-35.0,0,0.524,672.0,0.0,17
3672,29930623,112.0,123.0,-42.0,0,0.542,672.0,0.0,17
3673,29938625,108.0,119.0,-47.0,0,0.518,672.0,0.0,17
3674,29946623,108.0,117.0,-52.0,0,0.531,672.0,0.0,17
3675,29954623,109.0,115.0,-56.0,0,0.522,672.0,0.0,17
3676,29962621,112.0,114.0,-58.0,0,0.489,672.0,0.0,17
3677,29970624,112.0,114.0,-60.0,0,0.494,672.0,0.0,17
3678,29978621,116.0,114.0,-61.0,0,0.478,672.0,0.0,17
3679,29986625,113.0,114.0,-62.0,0,0.481,672.0,0.0,17
3680,29994623,112.0,113.0,-63.0,0,0.484,672.0,0.0,17
3681,30002625,112.0,113.0,-63.0,1,0.467,672.0,0.0,17
3682,30010625,110.0,112.0,-63.0,0,0.467,672.0,0.0,17
3683,30018625,112.0,112.0,-64.0,0,0.487,672.0,0.0,17
3684,30026625,110.0,112.0,-64.0,1,0.47,672.0,0.0,17
3685,30034625,109.0,111.0,-64.0,0,0.47,672.0,0.0,17
3686,30042625,104.0,109.0,-64.0,0,0.471,672.0,0.0,17
3687,30050625,99.0,107.0,-65.0,0,0.491,672.0,0.0,17
3688,30058625,99.0,105.0,-66.0,0,0.494,672.0,0.0,17
3689,30066621,95.0,103.0,-68.0,0,0.519,672.0,0.0,17
3690,30074625,94.0,100.0,-69.0,0,0.503,672.0,0.0,17
3691,30082620,91.0,98.0,-71.0,0,0.527,672.0,0.0,17
3692,30090625,89.0,96.0,-72.0,0,0.512,672.0,0.0,17
3693,30098624,85.0,93.0,-74.0,0,0.536,672.0,0.0,17
3694,30106620,85.0,91.0,-76.0,0,0.541,672.0,0.0,17
3695,30114625,84.0,90.0,-77.0,0,0.526,672.0,0.0,17
3696,30122624,85.0,88.0,-78.0,0,0.529,672.0,0.0,17
3697,30130625,82.0,87.0,-79.0,0,0.532,672.0,0.0,17
3698,30138624,81.0,85.0,-81.0,0,0.555,672.0,0.0,17
3699,30146625,80.0,84.0,-82.0,0,0.54,672.0,0.0,17
3700,30154622,80.0,83.0,-82.0,1,0.522,672.0,0.0,17
3701,30162620,76.0,81.0,-83.0,0,0.542,672.0,0.0,17
3702,30170625,81.0,81.0,-84.0,0,0.545,672.0,0.0,17
3703,30178625,81.0,81.0,-84.0,1,0.527,672.0,0.0,17
3704,30186625,80.0,81.0,-84.0,0,0.527,672.0,0.0,17
3705,30194624,80.0,81.0,-84.0,0,0.527,672.0,0.0,17
3709,30226625,82.0,81.0,-83.0,1,0.525,672.0,0.0,17
3710,30234620,84.0,82.0,-82.0,0,0.54,672.0,0.0,17
3711,30242620,88.0,83.0,-81.0,0,0.537,672.0,0.0,17
3712,30250625,92.0,86.0,-79.0,0,0.55,672.0,0.0,17
3713,30258621,93.0,87.0,-78.0,0,0.529,672.0,0.0,17
3714,30266620,95.0,89.0,-76.0,0,0.542,672.0,0.0,17
3715,30274623,93.0,90.0,-74.0,0,0.537,672.0,0.0,17
3716,30282625,96.0,92.0,-72.0,0,0.532,672.0,0.0,17
3717,30290622,101.0,94.0,-70.0,0,0.526,672.0,0.0,17
3718,30298622,102.0,96.0,-68.0,0,0.521,672.0,0.0,17
3719,30306623,105.0,98.0,-66.0,0,0.516,672.0,0.0,17
3720,30314625,107.0,100.0,-63.0,0,0.527,672.0,0.0,17
3721,30322625,108.0,102.0,-61.0,0,0.502,672.0,0.0,17
3722,30330624,112.0,105.0,-58.0,0,0.514,672.0,0.0,17
3723,30338625,116.0,107.0,-56.0,0,0.489,672.0,0.0,17
3724,30346621,121.0,111.0,-53.0,0,0.5,672.0,0.0,17
3725,30354623,124.0,114.0,-50.0,0,0.492,672.0,0.0,17
3726,30362623,130.0,118.0,-46.0,0,0.501,672.0,0.0,17
3727,30370625,144.0,124.0,-42.0,0,0.49,672.0,0.0,17
3728,30378622,156.0,132.0,-37.0,0,0.496,672.0,0.0,17
3729,30386625,173.0,142.0,-30.0,0,0.515,672.0,0.0,17
3730,30394625,184.0,152.0,-22.0,0,0.511,672.0,0.0,17
3731,30402623,207.0,165.0,-13.0,0,0.504,672.0,0.0,17
3732,30410623,226.0,180.0,-2.0,0,0.506,672.0,0.0,17
3733,30418622,244.0,196.0,10.0,0,0.536,672.0,0.0,17
3734,30426621,268.0,213.0,23.0,0,0.577,672.0,0.0,17
3735,30434625,291.0,232.0,38.0,0,0.631,672.0,0.0,17
3736,30442621,306.0,250.0,54.0,0,0.679,672.0,0.0,17
3737,30450624,321.0,267.0,70.0,0,0.719,672.0,0.0,17
3738,30458625,335.0,284.0,85.0,0,0.747,672.0,0.0,17
3739,30466622,349.0,299.0,101.0,0,0.788,672.0,0.0,17
3740,30474623,357.0,313.0,116.0,0,0.809,672.0,0.0,17
3741,30482625,362.0,325.0,129.0,0,0.813,672.0,0.0,17
3742,30490620,368.0,336.0,142.0,0,0.831,672.0,0.0,17
3743,30498625,368.0,343.0,152.0,0,0.808,672.0,0.0,17
3744,30506625,369.0,350.0,162.0,0,0.819,672.0,0.0,17
3745,30514624,366.0,354.0,169.0,0,0.779,672.0,0.0,17
3746,30522625,358.0,355.0,174.0,0,0.749,672.0,0.0,17
3747,30530622,355.0,355.0,177.0,0,0.715,672.0,0.0,17
3748,30538625,344.0,352.0,179.0,0,0.698,672.0,0.0,17
3749,30546621,337.0,348.0,178.0,1,0.679,672.0,0.0,17
3750,30554625,324.0,343.0,176.0,0,0.693,672.0,0.0,17
3751,30562621,308.0,334.0,171.0,0,0.741,672.0,0.0,17
3752,30570625,299.0,326.0,166.0,0,0.734,672.0,0.0,17
3757,30610622,235.0,271.0,120.0,0,0.745,672.0,0.0,17
3758,30618623,222.0,259.0,108.0,0,0.746,672.0,0.0,17
3759,30626623,212.0,248.0,97.0,0,0.711,672.0,0.0,17
3760,30634625,204.0,237.0,86.0,0,0.687,672.0,0.0,17
3761,30642623,199.0,228.0,75.0,0,0.662,672.0,0.0,17
3762,30650622,188.0,218.0,64.0,0,0.636,672.0,0.0,17
3763,30658625,179.0,209.0,54.0,0,0.599,672.0,0.0,17
3764,30666625,168.0,199.0,44.0,0,0.574,672.0,0.0,17
3765,30674625,163.0,190.0,34.0,0,0.55,672.0,0.0,17
3766,30682622,156.0,182.0,24.0,0,0.527,672.0,0.0,17
3767,30690625,147.0,173.0,15.0,0,0.492,672.0,0.0,17
3768,30698620,144.0,166.0,7.0,0,0.459,672.0,0.0,17
3769,30706625,137.0,159.0,-1.0,0,0.454,672.0,0.0,17
3770,30714625,132.0,153.0,-9.0,0,0.471,672.0,0.0,17
3771,30722625,126.0,146.0,-16.0,0,0.471,672.0,0.0,17
3772,30730625,124.0,141.0,-23.0,0,0.488,672.0,0.0,17
3773,30738622,121.0,136.0,-29.0,0,0.486,672.0,0.0,17
3774,30746623,120.0,132.0,-34.0,0,0.481,672.0,0.0,17
3775,30754624,122.0,130.0,-38.0,0,0.473,672.0,0.0,17
3778,30778624,113.0,122.0,-49.0,0,0.482,672.0,0.0,17
3779,30786620,114.0,120.0,-51.0,0,0.469,672.0,0.0,17
3780,30794625,115.0,119.0,-53.0,0,0.474,672.0,0.0,17
3781,30802623,109.0,116.0,-55.0,0,0.478,672.0,0.0,17
3782,30810622,106.0,114.0,-57.0,0,0.483,672.0,0.0,17
3783,30818625,101.0,111.0,-60.0,0,0.509,672.0,0.0,17
3784,30826625,96.0,107.0,-62.0,0,0.495,672.0,0.0,17
3785,30834625,92.0,103.0,-65.0,0,0.521,672.0,0.0,17
3786,30842620,93.0,101.0,-67.0,0,0.507,672.0,0.0,17
3787,30850625,89.0,98.0,-70.0,0,0.533,672.0,0.0,17
3788,30858625,82.0,94.0,-72.0,0,0.519,672.0,0.0,17
3789,30866625,80.0,91.0,-75.0,0,0.545,672.0,0.0,17
3790,30874625,78.0,88.0,-78.0,0,0.552,672.0,0.0,17
3791,30882625,74.0,84.0,-81.0,0,0.558,672.0,0.0,17
3792,30890625,74.0,82.0,-83.0,0,0.545,672.0,0.0,17
3793,30898625,74.0,80.0,-85.0,0,0.549,672.0,0.0,17
3794,30906625,72.0,78.0,-87.0,0,0.554,672.0,0.0,17
3795,30914622,68.0,76.0,-89.0,0,0.558,672.0,0.0,17
3796,30922625,71.0,74.0,-91.0,0,0.562,672.0,0.0,17
3797,30930624,70.0,73.0,-92.0,0,0.546,672.0,0.0,17
3798,30938625,68.0,72.0,-93.0,0,0.548,672.0,0.0,17
3799,30946622,72.0,72.0,-93.0,1,0.531,672.0,0.0,17
3800,30954621,75.0,73.0,-93.0,0,0.531,672.0,0.0,17
3801,30962622,74.0,73.0,-93.0,0,0.531,672.0,0.0,17
3802,30970624,75.0,74.0,-93.0,0,0.53,672.0,0.0,17
3803,30978624,76.0,74.0,-92.0,0,0.545,672.0,0.0,17
3804,30986625,80.0,76.0,-91.0,0,0.542,672.0,0.0,17
3805,30994625,78.0,76.0,-90.0,0,0.54,672.0,0.0,17
3806,31002622,75.0,76.0,-89.0,0,0.537,672.0,0.0,17
3807,31010621,76.0,76.0,-88.0,0,0.535,672.0,0.0,17
3808,31018625,79.0,77.0,-87.0,0,0.532,672.0,0.0,17
3809,31026625,73.0,76.0,-87.0,1,0.515,672.0,0.0,17
3810,31034621,77.0,76.0,-86.0,0,0.53,672.0,0.0,17
3811,31042625,81.0,77.0,-85.0,0,0.527,672.0,0.0,17
3812,31050625,77.0,77.0,-84.0,0,0.525,672.0,0.0,17
3813,31058621,83.0,79.0,-83.0,0,0.522,672.0,0.0,17
3814,31066625,84.0,80.0,-82.0,0,0.52,672.0,0.0,17
3815,31074625,88.0,82.0,-80.0,0,0.532,672.0,0.0,17
3816,31082620,89.0,84.0,-78.0,0,0.527,672.0,0.0,17
3817,31090621,92.0,86.0,-76.0,0,0.522,672.0,0.0,17
3818,31098625,94.0,88.0,-74.0,0,0.517,672.0,0.0,17
3819,31106620,96.0,90.0,-72.0,0,0.512,672.0,0.0,17
3820,31114620,103.0,93.0,-69.0,0,0.523,672.0,0.0,17
3821,31122623,109.0,97.0,-66.0,0,0.515,672.0,0.0,17
3822,31130625,123.0,103.0,-62.0,0,0.524,672.0,0.0,17
3823,31138623,135.0,111.0,-57.0,0,0.529,672.0,0.0,17
3824,31146621,143.0,119.0,-51.0,0,0.532,672.0,0.0,17
3825,31154625,158.0,128.0,-43.0,0,0.546,672.0,0.0,17
3826,31162625,172.0,139.0,-35.0,0,0.525,672.0,0.0,17
3827,31170625,193.0,152.0,-26.0,0,0.519,672.0,0.0,17
3828,31178625,212.0,167.0,-15.0,0,0.52,672.0,0.0,17
3829,31186621,234.0,183.0,-2.0,0,0.521,672.0,0.0,17
3830,31194625,252.0,200.0,11.0,0,0.549,672.0,0.0,17
3831,31202623,274.0,218.0,26.0,0,0.602,672.0,0.0,17
3832,31210625,289.0,235.0,41.0,0,0.639,672.0,0.0,17
3833,31218625,307.0,252.0,57.0,0,0.686,672.0,0.0,17
3834,31226623,316.0,268.0,72.0,0,0.714,672.0,0.0,17
3835,31234624,328.0,282.0,87.0,0,0.748,672.0,0.0,17
3836,31242625,335.0,295.0,102.0,0,0.779,672.0,0.0,17
3837,31250625,340.0,306.0,114.0,0,0.771,672.0,0.0,17
3838,31258625,338.0,314.0,126.0,0,0.791,672.0,0.0,17
3839,31266625,341.0,320.0,135.0,0,0.765,672.0,0.0,17
3840,31274625,339.0,325.0,143.0,0,0.76,672.0,0.0,17
3841,31282623,336.0,328.0,149.0,0,0.734,672.0,0.0,17
3842,31290625,331.0,328.0,153.0,0,0.704,672.0,0.0,17
3843,31298625,323.0,327.0,155.0,0,0.671,672.0,0.0,17
3844,31306625,316.0,324.0,156.0,0,0.654,672.0,0.0,17
3845,31314625,310.0,321.0,155.0,1,0.651,672.0,0.0,17
3846,31322625,296.0,315.0,153.0,0,0.663,672.0,0.0,17
3847,31330625,288.0,308.0,149.0,0,0.689,672.0,0.0,17
3848,31338625,280.0,301.0,143.0,0,0.713,672.0,0.0,17
3849,31346625,268.0,293.0,137.0,0,0.701,672.0,0.0,17
3850,31354625,259.0,285.0,130.0,0,0.704,672.0,0.0,17
3851,31362623,249.0,276.0,123.0,0,0.69,672.0,0.0,17
3852,31370625,235.0,266.0,114.0,0,0.703,672.0,0.0,17
3853,31378623,222.0,256.0,105.0,0,0.683,672.0,0.0,17
3854,31386625,212.0,245.0,95.0,0,0.675,672.0,0.0,17
3855,31394624,200.0,234.0,85.0,0,0.652,672.0,0.0,17
3856,31402621,190.0,223.0,74.0,0,0.639,672.0,0.0,17
3857,31410623,181.0,213.0,64.0,0,0.603,672.0,0.0,17
3858,31418625,168.0,202.0,53.0,0,0.59,672.0,0.0,17
3859,31426621,163.0,193.0,43.0,0,0.554,672.0,0.0,17
3860,31434622,154.0,183.0,33.0,0,0.531,672.0,0.0,17
3861,31442625,150.0,175.0,23.0,0,0.509,672.0,0.0,17
3862,31450624,142.0,167.0,14.0,0,0.476,672.0,0.0,17
3863,31458625,141.0,161.0,6.0,0,0.445,672.0,0.0,17
3864,31466620,140.0,156.0,-2.0,0,0.459,672.0,0.0,17
3865,31474625,140.0,152.0,-8.0,0,0.438,672.0,0.0,17
3866,31482625,145.0,150.0,-13.0,0,0.432,672.0,0.0,17
3867,31490621,141.0,148.0,-17.0,0,0.423,672.0,0.0,17
3868,31498623,141.0,146.0,-20.0,0,0.412,672.0,0.0,17
3869,31506625,143.0,146.0,-23.0,0,0.418,672.0,0.0,17
3870,31514625,144.0,145.0,-25.0,0,0.405,672.0,0.0,17
3871,31522625,145.0,145.0,-26.0,0,0.39,672.0,0.0,17
3872,31530625,144.0,145.0,-27.0,0,0.392,672.0,0.0,17
3873,31538623,146.0,145.0,-27.0,1,0.375,672.0,0.0,17
3874,31546622,141.0,144.0,-28.0,0,0.392,672.0,0.0,17
3875,31554622,139.0,143.0,-29.0,0,0.394,672.0,0.0,17
3876,31562625,135.0,141.0,-30.0,0,0.396,672.0,0.0,17
3877,31570625,131.0,139.0,-31.0,0,0.397,672.0,0.0,17
3878,31578625,122.0,135.0,-33.0,0,0.418,672.0,0.0,17
3879,31586623,120.0,131.0,-36.0,0,0.442,672.0,0.0,17
3880,31594622,115.0,127.0,-38.0,0,0.43,672.0,0.0,17
3881,31602621,112.0,123.0,-41.0,0,0.454,672.0,0.0,17
3882,31610622,109.0,120.0,-44.0,0,0.461,672.0,0.0,17
3883,31618625,102.0,116.0,-47.0,0,0.469,672.0,0.0,17
3884,31626625,104.0,113.0,-50.0,0,0.476,672.0,0.0,17
3885,31634625,103.0,110.0,-53.0,0,0.483,672.0,0.0,17
3886,31642623,103.0,109.0,-56.0,0,0.491,672.0,0.0,17
3887,31650625,108.0,108.0,-57.0,0,0.458,672.0,0.0,17
3888,31658621,108.0,108.0,-58.0,0,0.46,672.0,0.0,17
3889,31666625,107.0,108.0,-59.0,0,0.463,672.0,0.0,17
3890,31674625,106.0,108.0,-59.0,1,0.446,672.0,0.0,17
3891,31682622,100.0,106.0,-60.0,0,0.465,672.0,0.0,17
3892,31690625,103.0,105.0,-61.0,0,0.467,672.0,0.0,17
3893,31698623,102.0,104.0,-61.0,1,0.451,672.0,0.0,17
3894,31706625,102.0,104.0,-62.0,0,0.47,672.0,0.0,17
3895,31714623,103.0,104.0,-62.0,1,0.453,672.0,0.0,17
3896,31722625,104.0,104.0,-62.0,0,0.453,672.0,0.0,17
3897,31730620,103.0,104.0,-62.0,0,0.453,672.0,0.0,17
3898,31738623,108.0,105.0,-62.0,0,0.453,672.0,0.0,17
3899,31746623,110.0,106.0,-61.0,0,0.467,672.0,0.0,17
3900,31754625,113.0,108.0,-60.0,0,0.465,672.0,0.0,17
3901,31762620,112.0,109.0,-58.0,0,0.477,672.0,0.0,17
3902,31770624,114.0,110.0,-57.0,0,0.457,672.0,0.0,17
3903,31778623,116.0,111.0,-56.0,0,0.455,672.0,0.0,17
3904,31786621,116.0,113.0,-54.0,0,0.467,672.0,0.0,17
3905,31794623,122.0,115.0,-52.0,0,0.462,672.0,0.0,17
3906,31802625,126.0,118.0,-50.0,0,0.457,672.0,0.0,17
3907,31810625,127.0,120.0,-48.0,0,0.452,672.0,0.0,17
3908,31818620,137.0,124.0,-45.0,0,0.462,672.0,0.0,17
3909,31826623,140.0,128.0,-42.0,0,0.455,672.0,0.0,17
3910,31834624,146.0,132.0,-38.0,0,0.463,672.0,0.0,17
3911,31842625,156.0,138.0,-34.0,0,0.453,672.0,0.0,17
3912,31850625,165.0,145.0,-29.0,0,0.459,672.0,0.0,17
3913,31858625,177.0,152.0,-23.0,0,0.463,672.0,0.0,17
3914,31866623,186.0,161.0,-17.0,0,0.449,672.0,0.0,17
3915,31874625,202.0,171.0,-9.0,0,0.464,672.0,0.0,17
3916,31882621,216.0,182.0,-1.0,0,0.452,672.0,0.0,17
3917,31890625,234.0,194.0,9.0,0,0.504,672.0,0.0,17
3918,31898621,247.0,207.0,19.0,0,0.526,672.0,0.0,17
3919,31906625,264.0,221.0,31.0,0,0.58,672.0,0.0,17
3920,31914625,275.0,234.0,42.0,0,0.594,672.0,0.0,17
3921,31922622,284.0,246.0,54.0,0,0.635,672.0,0.0,17
3922,31930625,292.0,257.0,65.0,0,0.65,672.0,0.0,17
3923,31938625,300.0,268.0,76.0,0,0.675,672.0,0.0,17
3924,31946625,305.0,277.0,86.0,0,0.685,672.0,0.0,17
3925,31954625,303.0,283.0,95.0,0,0.689,672.0,0.0,17
3926,31962624,303.0,288.0,102.0,0,0.672,672.0,0.0,17
3927,31970625,300.0,291.0,108.0,0,0.666,672.0,0.0,17
3928,31978625,300.0,293.0,113.0,0,0.657,672.0,0.0,17
3929,31986623,299.0,294.0,116.0,0,0.627,672.0,0.0,17
3930,31994625,290.0,293.0,118.0,0,0.613,672.0,0.0,17
3931,32002624,284.0,291.0,119.0,0,0.597,672.0,0.0,17
3932,32010625,276.0,287.0,118.0,1,0.593,672.0,0.0,17
3933,32018620,265.0,282.0,116.0,0,0.604,672.0,0.0,17
3934,32026625,260.0,277.0,112.0,0,0.629,672.0,0.0,17
3935,32034625,247.0,269.0,107.0,0,0.635,672.0,0.0,17
3936,32042624,241.0,263.0,102.0,0,0.622,672.0,0.0,17
3937,32050625,228.0,254.0,96.0,0,0.625,672.0,0.0,17
3938,32058622,217.0,245.0,88.0,0,0.638,672.0,0.0,17
3939,32066625,203.0,235.0,80.0,0,0.617,672.0,0.0,17
3940,32074624,192.0,225.0,71.0,0,0.609,672.0,0.0,17
3941,32082625,182.0,214.0,62.0,0,0.586,672.0,0.0,17
3942,32090624,170.0,204.0,52.0,0,0.574,672.0,0.0,17
3943,32098625,161.0,193.0,42.0,0,0.548,672.0,0.0,17
3944,32106623,152.0,183.0,32.0,0,0.523,672.0,0.0,17
3945,32114625,143.0,173.0,22.0,0,0.499,672.0,0.0,17
3946,32122625,139.0,165.0,12.0,0,0.477,672.0,0.0,17
3947,32130625,135.0,158.0,3.0,0,0.468,672.0,0.0,17
3948,32138625,126.0,150.0,-5.0,0,0.471,672.0,0.0,17
3949,32146625,123.0,144.0,-13.0,0,0.49,672.0,0.0,17
3950,32154620,121.0,138.0,-20.0,0,0.491,672.0,0.0,17
3951,32162624,117.0,133.0,-26.0,0,0.489,672.0,0.0,17
3952,32170625,117.0,129.0,-32.0,0,0.503,672.0,0.0,17
3953,32178625,117.0,126.0,-37.0,0,0.499,672.0,0.0,17
3954,32186625,117.0,124.0,-41.0,0,0.492,672.0,0.0,17
3955,32194625,115.0,122.0,-44.0,0,0.482,672.0,0.0,17
3956,32202625,116.0,120.0,-47.0,0,0.489,672.0,0.0,17
3957,32210622,116.0,119.0,-49.0,0,0.477,672.0,0.0,17
3958,32218625,113.0,118.0,-51.0,0,0.481,672.0,0.0,17
3959,32226625,116.0,117.0,-52.0,0,0.467,672.0,0.0,17
3960,32234625,122.0,118.0,-53.0,0,0.468,672.0,0.0,17
3961,32242622,121.0,119.0,-53.0,1,0.452,672.0,0.0,17
3962,32250621,120.0,119.0,-53.0,0,0.451,672.0,0.0,17
3963,32258625,126.0,121.0,-52.0,0,0.463,672.0,0.0,17
3964,32266622,120.0,121.0,-51.0,0,0.46,672.0,0.0,17
3965,32274624,124.0,122.0,-51.0,1,0.442,672.0,0.0,17
3966,32282625,120.0,121.0,-50.0,0,0.455,672.0,0.0,17
3967,32290623,118.0,120.0,-50.0,1,0.438,672.0,0.0,17
3968,32298625,116.0,119.0,-50.0,0,0.437,672.0,0.0,17
3969,32306625,111.0,117.0,-51.0,0,0.455,672.0,0.0,17
3970,32314624,111.0,116.0,-51.0,1,0.438,672.0,0.0,17
3971,32322625,108.0,114.0,-52.0,0,0.456,672.0,0.0,17
3972,32330623,108.0,112.0,-53.0,0,0.457,672.0,0.0,17
3973,32338623,109.0,112.0,-54.0,0,0.459,672.0,0.0,17
3974,32346625,106.0,110.0,-55.0,0,0.461,672.0,0.0,17
3975,32354622,106.0,109.0,-56.0,0,0.463,672.0,0.0,17
3976,32362625,107.0,109.0,-56.0,1,0.445,672.0,0.0,17
3977,32370623,105.0,108.0,-57.0,0,0.463,672.0,0.0,17
3978,32378621,104.0,107.0,-58.0,0,0.465,672.0,0.0,17
3979,32386621,101.0,105.0,-58.0,1,0.448,672.0,0.0,17
3980,32394625,100.0,104.0,-59.0,0,0.466,672.0,0.0,17
3981,32402621,107.0,105.0,-59.0,1,0.448,672.0,0.0,17
3982,32410622,103.0,104.0,-59.0,0,0.447,672.0,0.0,17
3983,32418620,104.0,104.0,-60.0,0,0.466,672.0,0.0,17
3984,32426622,102.0,104.0,-60.0,1,0.448,672.0,0.0,17
3985,32434623,102.0,103.0,-60.0,0,0.447,672.0,0.0,17
3986,32442625,104.0,103.0,-60.0,0,0.447,672.0,0.0,17
3987,32450621,104.0,104.0,-59.0,0,0.46,672.0,0.0,17
3988,32458625,108.0,105.0,-59.0,1,0.442,672.0,0.0,17
3989,32466625,111.0,106.0,-58.0,0,0.457,672.0,0.0,17
3990,32474625,109.0,107.0,-57.0,0,0.454,672.0,0.0,17
3991,32482625,114.0,109.0,-55.0,0,0.467,672.0,0.0,17
3992,32490625,115.0,110.0,-54.0,0,0.445,672.0,0.0,17
3993,32498623,114.0,111.0,-53.0,0,0.442,672.0,0.0,17
3994,32506623,115.0,112.0,-51.0,0,0.455,672.0,0.0,17
3995,32514625,121.0,114.0,-50.0,0,0.434,672.0,0.0,17
3996,32522620,126.0,117.0,-47.0,0,0.464,672.0,0.0,17
3997,32530625,127.0,119.0,-45.0,0,0.439,672.0,0.0,17
3998,32538625,140.0,124.0,-42.0,0,0.451,672.0,0.0,17
3999,32546624,154.0,132.0,-38.0,0,0.46,672.0,0.0,17
4000,32554625,164.0,139.0,-32.0,0,0.482,672.0,0.0,17
4001,32562621,185.0,151.0,-25.0,0,0.482,672.0,0.0,17
4002,32570625,203.0,163.0,-17.0,0,0.479,672.0,0.0,17
4003,32578625,220.0,177.0,-7.0,0,0.494,672.0,0.0,17
4004,32586620,238.0,192.0,5.0,0,0.547,672.0,0.0,17
4005,32594620,255.0,207.0,17.0,0,0.577,672.0,0.0,17
4006,32602620,280.0,225.0,31.0,0,0.633,672.0,0.0,17
4007,32610622,296.0,242.0,45.0,0,0.67,672.0,0.0,17
4008,32618625,310.0,259.0,60.0,0,0.717,672.0,0.0,17
4009,32626625,324.0,274.0,75.0,0,0.753,672.0,0.0,17
4010,32634625,333.0,289.0,90.0,0,0.786,672.0,0.0,17
4011,32642623,344.0,302.0,104.0,0,0.805,672.0,0.0,17
4012,32650625,355.0,315.0,117.0,0,0.818,672.0,0.0,17
4013,32658625,355.0,325.0,129.0,0,0.825,672.0,0.0,17
4014,32666620,358.0,333.0,140.0,0,0.827,672.0,0.0,17
4015,32674624,358.0,339.0,149.0,0,0.809,672.0,0.0,17
4016,32682625,353.0,342.0,156.0,0,0.783,672.0,0.0,17
4017,32690625,350.0,344.0,161.0,0,0.752,672.0,0.0,17
4018,32698623,343.0,344.0,164.0,0,0.718,672.0,0.0,17
4019,32706623,340.0,343.0,166.0,0,0.7,672.0,0.0,17
4020,32714625,331.0,340.0,166.0,1,0.665,672.0,0.0,17
4021,32722625,320.0,335.0,165.0,0,0.679,672.0,0.0,17
4022,32730625,308.0,329.0,161.0,0,0.725,672.0,0.0,17
4023,32738625,294.0,320.0,156.0,0,0.736,672.0,0.0,17
4024,32746623,282.0,311.0,150.0,0,0.744,672.0,0.0,17
4025,32754620,267.0,300.0,142.0,0,0.764,672.0,0.0,17
4026,32762625,254.0,289.0,133.0,0,0.763,672.0,0.0,17
4027,32770625,241.0,277.0,123.0,0,0.757,672.0,0.0,17
4028,32778624,224.0,264.0,112.0,0,0.747,672.0,0.0,17
4029,32786620,206.0,250.0,100.0,0,0.731,672.0,0.0,17
4030,32794625,195.0,237.0,87.0,0,0.709,672.0,0.0,17
4031,32802623,180.0,223.0,74.0,0,0.675,672.0,0.0,17
4032,32810620,167.0,209.0,61.0,0,0.64,672.0,0.0,17
4033,32818623,152.0,196.0,48.0,0,0.605,672.0,0.0,17
4034,32826621,140.0,182.0,34.0,0,0.577,672.0,0.0,17
4035,32834621,125.0,168.0,21.0,0,0.535,672.0,0.0,17
4036,32842625,118.0,156.0,8.0,0,0.51,672.0,0.0,17
4037,32850625,113.0,146.0,-5.0,0,0.54,672.0,0.0,17
4038,32858623,106.0,136.0,-16.0,0,0.544,672.0,0.0,17
4039,32866620,101.0,128.0,-27.0,0,0.572,672.0,0.0,17
4040,32874625,97.0,120.0,-36.0,0,0.569,672.0,0.0,17
4041,32882625,100.0,115.0,-44.0,0,0.575,672.0,0.0,17
4042,32890625,100.0,112.0,-51.0,0,0.577,672.0,0.0,17
4043,32898625,100.0,109.0,-56.0,0,0.558,672.0,0.0,17
4044,32906624,106.0,108.0,-60.0,0,0.551,672.0,0.0,17
4045,32914625,104.0,107.0,-63.0,0,0.542,672.0,0.0,17
4046,32922621,106.0,107.0,-65.0,0,0.531,672.0,0.0,17
4047,32930621,107.0,107.0,-66.0,0,0.517,672.0,0.0,17
4048,32938625,109.0,107.0,-67.0,0,0.52,672.0,0.0,17
4049,32946625,107.0,107.0,-68.0,0,0.522,672.0,0.0,17
4050,32954625,105.0,107.0,-68.0,1,0.506,672.0,0.0,17
4051,32962620,108.0,107.0,-68.0,0,0.505,672.0,0.0,17
4052,32970622,108.0,107.0,-68.0,0,0.505,672.0,0.0,17
4053,32978623,107.0,107.0,-67.0,0,0.517,672.0,0.0,17
4054,32986624,105.0,107.0,-67.0,1,0.501,672.0,0.0,17
4055,32994623,100.0,105.0,-67.0,0,0.5,672.0,0.0,17
4056,33002625,102.0,104.0,-68.0,0,0.517,672.0,0.0,17
4057,33010625,102.0,104.0,-68.0,1,0.5,672.0,0.0,17
4058,33018625,103.0,104.0,-68.0,0,0.499,672.0,0.0,17
4059,33026623,100.0,103.0,-68.0,0,0.498,672.0,0.0,17
4060,33034620,99.0,102.0,-68.0,0,0.497,672.0,0.0,17
4061,33042625,96.0,100.0,-69.0,0,0.514,672.0,0.0,17
4062,33050625,96.0,99.0,-69.0,1,0.497,672.0,0.0,17
4063,33058621,93.0,98.0,-70.0,0,0.515,672.0,0.0,17
4064,33066625,85.0,95.0,-71.0,0,0.516,672.0,0.0,17
4065,33074623,86.0,93.0,-72.0,0,0.518,672.0,0.0,17
4066,33082625,89.0,92.0,-74.0,0,0.539,672.0,0.0,17
4067,33090625,87.0,91.0,-74.0,1,0.505,672.0,0.0,17
4068,33098625,84.0,89.0,-75.0,0,0.523,672.0,0.0,17
4069,33106625,84.0,88.0,-76.0,0,0.525,672.0,0.0,17
4070,33114623,80.0,86.0,-77.0,0,0.526,672.0,0.0,17
4071,33122623,85.0,86.0,-78.0,0,0.528,672.0,0.0,17
4072,33130625,87.0,86.0,-78.0,1,0.511,672.0,0.0,17
4073,33138625,84.0,86.0,-78.0,0,0.51,672.0,0.0,17
4074,33146625,88.0,86.0,-78.0,0,0.509,672.0,0.0,17
4075,33154621,93.0,88.0,-77.0,0,0.523,672.0,0.0,17
4076,33162624,93.0,89.0,-76.0,0,0.519,672.0,0.0,17
4077,33170625,94.0,90.0,-75.0,0,0.515,672.0,0.0,17
4078,33178620,100.0,93.0,-73.0,0,0.527,672.0,0.0,17
4079,33186625,103.0,95.0,-71.0,0,0.52,672.0,0.0,17
4080,33194625,102.0,97.0,-69.0,0,0.514,672.0,0.0,17
4081,33202625,107.0,99.0,-67.0,0,0.507,672.0,0.0,17
4082,33210623,107.0,101.0,-65.0,0,0.501,672.0,0.0,17
