seq,t_us,raw,avg,filtered,candidate,detector_score,expected_rr_ms,hr_bpm,flags
269165,2153876511,224.0,230.0,50.0,0,0.722,769.6,78.1,1
269166,2153884511,216.0,227.0,47.0,0,0.82,769.6,78.1,1
269167,2153892511,215.0,224.0,45.0,0,0.758,769.6,78.1,1
269168,2153900511,212.0,221.0,42.0,0,0.793,769.6,78.1,1
269169,2153908510,206.0,217.0,39.0,0,0.775,769.6,78.1,1
269170,2153916514,204.0,214.0,36.0,0,0.756,769.6,78.1,1
269171,2153924511,197.0,210.0,33.0,0,0.734,769.6,78.1,1
269172,2153932512,196.0,207.0,29.0,0,0.743,769.6,78.1,1
269173,2153940511,192.0,203.0,26.0,0,0.68,769.6,78.1,1
269174,2153948511,187.0,199.0,22.0,0,0.686,769.6,78.1,1
269175,2153956511,187.0,196.0,19.0,0,0.622,769.6,78.1,1
269176,2153964511,179.0,192.0,15.0,0,0.626,769.6,78.1,1
269177,2153972512,177.0,188.0,11.0,0,0.593,769.6,78.1,1
269178,2153980511,175.0,185.0,8.0,0,0.53,769.6,78.1,1
269179,2153988512,171.0,182.0,4.0,0,0.537,769.6,78.1,1
269180,2153996511,172.0,179.0,1.0,0,0.484,769.6,78.1,1
269181,2154004511,166.0,176.0,-2.0,0,0.506,769.6,78.1,1
269182,2154012511,166.0,174.0,-5.0,0,0.529,769.6,78.1,1
269183,2154020511,164.0,171.0,-8.0,0,0.553,769.6,78.1,1
269184,2154028511,164.0,170.0,-10.0,0,0.517,769.6,78.1,1
269185,2154036511,165.0,168.0,-12.0,0,0.534,769.6,78.1,1
269186,2154044511,163.0,167.0,-14.0,0,0.55,769.6,78.1,1
269187,2154052511,166.0,167.0,-15.0,0,0.499,769.6,78.1,1
269188,2154060511,165.0,166.0,-16.0,0,0.507,769.6,78.1,1
269189,2154068511,165.0,166.0,-17.0,0,0.515,772.8,78.1,1
269190,2154076511,168.0,167.0,-17.0,1,0.457,772.8,78.1,1
269191,2154084511,165.0,166.0,-18.0,0,0.522,772.8,78.1,1
269192,2154092511,169.0,167.0,-18.0,1,0.464,772.8,78.1,1
269193,2154100511,164.0,166.0,-18.0,0,0.462,772.8,78.1,1
269194,2154108510,165.0,166.0,-18.0,0,0.461,772.8,78.1,1
269195,2154116510,167.0,166.0,-18.0,0,0.46,772.8,78.1,1
269196,2154124511,165.0,166.0,-18.0,0,0.459,772.8,78.1,1
269197,2154132511,166.0,166.0,-18.0,0,0.458,772.8,78.1,1
269198,2154140511,160.0,164.0,-19.0,0,0.525,772.8,78.1,1
269199,2154148511,161.0,164.0,-19.0,1,0.465,772.8,78.1,1
269200,2154156511,164.0,164.0,-19.0,0,0.464,772.8,78.1,1
269201,2154164512,159.0,163.0,-20.0,0,0.532,772.8,78.1,1
269202,2154172511,161.0,162.0,-20.0,1,0.472,772.8,78.1,1
269203,2154180510,161.0,162.0,-21.0,0,0.539,772.8,78.1,1
269204,2154188511,160.0,161.0,-21.0,1,0.479,772.8,78.1,1
269205,2154196512,159.0,161.0,-21.0,0,0.478,772.8,78.1,1
269206,2154204511,156.0,160.0,-22.0,0,0.546,772.8,78.1,1
269207,2154212515,160.0,160.0,-22.0,1,0.486,772.8,78.1,1
269208,2154220511,156.0,159.0,-23.0,0,0.554,772.8,78.1,1
269209,2154228513,157.0,158.0,-23.0,1,0.493,772.8,78.1,1
269210,2154236511,156.0,158.0,-23.0,0,0.493,772.8,78.1,1
269211,2154244511,155.0,157.0,-24.0,0,0.561,772.8,78.1,1
269212,2154252511,157.0,157.0,-24.0,1,0.5,772.8,78.1,1
269213,2154260511,154.0,156.0,-24.0,0,0.5,772.8,78.1,1
269214,2154268511,154.0,156.0,-25.0,0,0.568,772.8,78.1,1
269215,2154276510,156.0,156.0,-25.0,1,0.507,772.8,78.1,1
269216,2154284511,151.0,155.0,-25.0,0,0.507,772.8,78.1,1
269217,2154292511,153.0,154.0,-26.0,0,0.575,772.8,78.1,1
269218,2154300511,148.0,153.0,-26.0,1,0.514,772.8,78.1,1
269219,2154308511,150.0,152.0,-27.0,0,0.582,772.8,78.1,1
269220,2154316511,151.0,152.0,-27.0,1,0.521,772.8,78.1,1
269221,2154324511,143.0,150.0,-28.0,0,0.589,772.8,78.1,1
269222,2154332511,147.0,149.0,-29.0,0,0.596,772.8,78.1,1
269223,2154340510,144.0,148.0,-30.0,0,0.603,772.8,78.1,1
269224,2154348511,144.0,147.0,-31.0,0,0.61,772.8,78.1,1
269225,2154356511,145.0,146.0,-31.0,1,0.549,772.8,78.1,1
269226,2154364511,140.0,145.0,-32.0,0,0.616,772.8,78.1,1
269227,2154372511,144.0,145.0,-33.0,0,0.622,772.8,78.1,1
269228,2154380511,141.0,144.0,-33.0,1,0.561,777.6,78.1,1
269229,2154388511,141.0,143.0,-34.0,0,0.628,777.6,78.1,1
269230,2154396512,143.0,143.0,-34.0,1,0.567,777.6,78.1,1
269231,2154404511,141.0,143.0,-35.0,0,0.633,777.6,78.1,1
269232,2154412511,143.0,143.0,-35.0,1,0.572,777.6,78.1,1
269233,2154420512,144.0,143.0,-35.0,0,0.572,777.6,78.1,1
269234,2154428511,149.0,144.0,-34.0,0,0.624,777.6,78.1,1
269235,2154436511,152.0,146.0,-33.0,0,0.616,777.6,78.1,1
269236,2154444512,152.0,148.0,-32.0,0,0.609,777.6,78.1,1
269237,2154452512,158.0,150.0,-30.0,0,0.655,777.6,78.1,1
269238,2154460511,160.0,153.0,-29.0,0,0.585,777.6,78.1,1
269239,2154468511,160.0,154.0,-27.0,0,0.63,777.6,78.1,1
269240,2154476512,164.0,157.0,-25.0,0,0.613,777.6,78.1,1
269241,2154484512,163.0,158.0,-23.0,0,0.596,777.6,78.1,1
269242,2154492511,166.0,160.0,-21.0,0,0.579,777.6,78.1,1
269243,2154500511,169.0,162.0,-19.0,0,0.561,777.6,78.1,1
269244,2154508512,170.0,164.0,-17.0,0,0.544,777.6,78.1,1
269245,2154516512,173.0,166.0,-15.0,0,0.527,777.6,78.1,1
269246,2154524512,172.0,168.0,-13.0,0,0.509,777.6,78.1,1
269247,2154532512,179.0,170.0,-11.0,0,0.493,777.6,78.1,1
269248,2154540511,180.0,173.0,-8.0,0,0.52,777.6,78.1,1
269249,2154548511,186.0,176.0,-6.0,0,0.452,777.6,78.1,1
269250,2154556511,191.0,180.0,-3.0,0,0.485,777.6,78.1,1
269251,2154564511,193.0,183.0,0.0,0,0.507,777.6,78.1,1
269252,2154572511,201.0,187.0,3.0,0,0.531,777.6,78.1,1
269253,2154580510,206.0,192.0,7.0,0,0.602,777.6,78.1,1
269254,2154588511,210.0,196.0,11.0,0,0.636,777.6,78.1,1
269255,2154596511,218.0,201.0,15.0,0,0.669,777.6,78.1,1
269256,2154604511,218.0,205.0,19.0,0,0.702,777.6,78.1,1
269257,2154612512,227.0,211.0,23.0,0,0.732,777.6,78.1,1
269258,2154620511,229.0,215.0,27.0,0,0.761,777.6,78.1,1
269259,2154628512,233.0,219.0,32.0,0,0.819,777.6,78.1,1
269260,2154636511,237.0,224.0,36.0,0,0.814,777.6,78.1,1
269261,2154644510,236.0,227.0,40.0,0,0.833,777.6,78.1,1
269262,2154652511,242.0,230.0,43.0,0,0.806,777.6,78.1,1
269263,2154660511,239.0,232.0,46.0,0,0.817,777.6,78.1,1
269264,2154668511,239.0,234.0,49.0,0,0.826,777.6,78.1,1
269265,2154676511,240.0,236.0,51.0,0,0.78,777.6,78.1,1
269266,2154684511,238.0,236.0,52.0,0,0.724,777.6,78.1,1
269267,2154692512,241.0,237.0,54.0,0,0.787,780.8,78.1,1
269268,2154700513,238.0,237.0,55.0,0,0.731,780.8,78.1,1
269269,2154708512,236.0,237.0,55.0,1,0.673,780.8,78.1,1
269270,2154716514,236.0,237.0,55.0,0,0.672,780.8,78.1,1
269271,2154724511,230.0,235.0,55.0,0,0.67,780.8,78.1,1
269272,2154732512,228.0,233.0,54.0,0,0.723,780.8,78.1,1
269273,2154740513,225.0,231.0,53.0,0,0.719,780.8,78.1,1
269274,2154748511,222.0,229.0,51.0,0,0.771,780.8,78.1,1
269275,2154756510,220.0,227.0,49.0,0,0.763,780.8,78.1,1
269276,2154764511,215.0,224.0,47.0,0,0.754,780.8,78.1,1
269277,2154772511,216.0,222.0,44.0,0,0.792,780.8,78.1,1
269278,2154780510,212.0,220.0,42.0,0,0.73,780.8,78.1,1
269279,2154788511,207.0,217.0,39.0,0,0.766,780.8,78.1,1
269280,2154796511,204.0,214.0,37.0,0,0.703,780.8,78.1,1
269281,2154804510,199.0,210.0,33.0,0,0.769,780.8,78.1,1
269282,2154812511,195.0,206.0,30.0,0,0.711,780.8,78.1,1
269283,2154820511,195.0,204.0,27.0,0,0.69,780.8,78.1,1
269284,2154828512,189.0,200.0,24.0,0,0.668,780.8,78.1,1
269285,2154836511,188.0,197.0,21.0,0,0.645,780.8,78.1,1
269286,2154844515,183.0,194.0,17.0,0,0.653,780.8,78.1,1
269287,2154852512,182.0,191.0,14.0,0,0.59,780.8,78.1,1
269288,2154860512,176.0,187.0,11.0,0,0.566,780.8,78.1,1
269289,2154868511,176.0,185.0,8.0,0,0.543,780.8,78.1,1
269290,2154876512,174.0,182.0,5.0,0,0.52,780.8,78.1,1
269291,2154884510,171.0,179.0,2.0,0,0.498,780.8,78.1,1
269292,2154892511,172.0,178.0,-1.0,0,0.477,780.8,78.1,1
269293,2154900511,168.0,175.0,-3.0,0,0.439,780.8,78.1,1
269294,2154908511,165.0,173.0,-6.0,0,0.512,780.8,78.1,1
269295,2154916511,167.0,171.0,-8.0,0,0.476,780.8,78.1,1
269296,2154924511,162.0,169.0,-10.0,0,0.492,780.8,78.1,1
269297,2154932511,164.0,168.0,-12.0,0,0.508,780.8,78.1,1
269298,2154940511,161.0,166.0,-14.0,0,0.524,780.8,78.1,1
269299,2154948512,159.0,164.0,-15.0,0,0.473,780.8,78.1,1
269300,2154956511,161.0,164.0,-17.0,0,0.548,780.8,78.1,1
269301,2154964511,157.0,162.0,-18.0,0,0.497,780.8,78.1,1
269302,2154972511,157.0,161.0,-19.0,0,0.505,780.8,78.1,1
269303,2154980511,155.0,159.0,-21.0,0,0.58,780.8,78.1,1
269304,2154988511,156.0,159.0,-22.0,0,0.529,780.8,78.1,1
269305,2154996511,154.0,157.0,-23.0,0,0.536,780.8,78.1,1
269306,2155004511,149.0,155.0,-24.0,0,0.544,788.8,78.1,1
269307,2155012512,150.0,154.0,-25.0,0,0.551,788.8,78.1,1
269308,2155020511,147.0,152.0,-27.0,0,0.625,788.8,78.1,1
269309,2155028511,144.0,150.0,-28.0,0,0.573,788.8,78.1,1
269310,2155036511,147.0,150.0,-29.0,0,0.58,788.8,78.1,1
269311,2155044511,143.0,148.0,-31.0,0,0.653,788.8,78.1,1
269312,2155052511,145.0,147.0,-32.0,0,0.601,788.8,78.1,1
269313,2155060511,142.0,146.0,-33.0,0,0.607,788.8,78.1,1
269314,2155068511,142.0,145.0,-34.0,0,0.613,788.8,78.1,1
269315,2155076511,141.0,144.0,-35.0,0,0.619,788.8,78.1,1
269316,2155084512,138.0,143.0,-36.0,0,0.624,788.8,78.1,1
269317,2155092511,141.0,142.0,-36.0,1,0.566,788.8,78.1,1
269318,2155100511,140.0,142.0,-37.0,0,0.629,788.8,78.1,1
269319,2155108512,140.0,141.0,-37.0,1,0.571,788.8,78.1,1
269320,2155116511,141.0,141.0,-38.0,0,0.633,788.8,78.1,1
269321,2155124511,140.0,141.0,-38.0,1,0.575,788.8,78.1,1
269322,2155132511,143.0,141.0,-38.0,0,0.575,788.8,78.1,1
269323,2155140512,144.0,142.0,-38.0,0,0.574,788.8,78.1,1
269324,2155148511,143.0,142.0,-37.0,0,0.624,788.8,78.1,1
269325,2155156511,147.0,143.0,-37.0,1,0.566,788.8,78.1,1
269326,2155164511,144.0,144.0,-36.0,0,0.616,788.8,78.1,1
269327,2155172512,150.0,145.0,-35.0,0,0.608,788.8,78.1,1
269328,2155180511,147.0,146.0,-34.0,0,0.601,788.8,78.1,1
269329,2155188512,149.0,146.0,-33.0,0,0.594,788.8,78.1,1
269330,2155196511,153.0,148.0,-32.0,0,0.586,788.8,78.1,1
269331,2155204511,151.0,149.0,-31.0,0,0.579,788.8,78.1,1
269332,2155212512,156.0,150.0,-30.0,0,0.571,788.8,78.1,1
269333,2155220511,156.0,152.0,-28.0,0,0.615,788.8,78.1,1
269334,2155228510,157.0,153.0,-27.0,0,0.548,788.8,78.1,1
269335,2155236511,160.0,155.0,-25.0,0,0.592,788.8,78.1,1
269336,2155244512,157.0,155.0,-24.0,0,0.525,788.8,78.1,1
269337,2155252511,163.0,157.0,-23.0,0,0.517,788.8,78.1,1
269338,2155260512,161.0,158.0,-21.0,0,0.56,788.8,78.1,1
269339,2155268512,165.0,160.0,-20.0,0,0.493,788.8,78.1,1
269340,2155276511,168.0,162.0,-18.0,0,0.536,788.8,78.1,1
269341,2155284511,167.0,163.0,-17.0,0,0.47,788.8,78.1,1
269342,2155292512,171.0,165.0,-15.0,0,0.513,788.8,78.1,1
269343,2155300511,170.0,166.0,-13.0,0,0.497,788.8,78.1,1
269344,2155308511,171.0,167.0,-12.0,0,0.431,788.8,78.1,1
269345,2155316511,173.0,169.0,-10.0,0,0.475,788.8,78.1,1
269346,2155324511,172.0,170.0,-9.0,0,0.409,788.8,78.1,1
269347,2155332512,176.0,171.0,-8.0,0,0.402,788.8,78.1,1
269348,2155340510,174.0,172.0,-7.0,0,0.395,788.8,78.1,1
269349,2155348512,176.0,173.0,-5.0,0,0.439,788.8,78.1,1
269350,2155356510,177.0,174.0,-4.0,0,0.374,788.8,78.1,1
269351,2155364511,180.0,175.0,-3.0,0,0.368,788.8,78.1,1
269352,2155372511,187.0,178.0,-1.0,0,0.44,788.8,78.1,1
269353,2155380511,185.0,180.0,0.0,0,0.388,788.8,78.1,1
269354,2155388512,190.0,182.0,2.0,0,0.46,788.8,78.1,1
269355,2155396511,196.0,186.0,4.0,0,0.475,788.8,78.1,1
269356,2155404511,197.0,188.0,7.0,0,0.548,788.8,78.1,1
269357,2155412511,204.0,192.0,9.0,0,0.512,788.8,78.1,1
269358,2155420510,207.0,196.0,12.0,0,0.586,788.8,78.1,1
269359,2155428511,212.0,200.0,16.0,0,0.655,788.8,78.1,1
269360,2155436511,217.0,204.0,19.0,0,0.639,788.8,78.1,1
269361,2155444514,219.0,208.0,23.0,0,0.707,788.8,78.1,1
269362,2155452515,226.0,212.0,26.0,0,0.689,788.8,78.1,1
269363,2155460511,227.0,216.0,30.0,0,0.754,788.8,78.1,1
269364,2155468511,229.0,219.0,33.0,0,0.733,788.8,78.1,1
269365,2155476510,231.0,222.0,36.0,0,0.75,788.8,78.1,1
269366,2155484511,228.0,223.0,39.0,0,0.766,788.8,78.1,1
269367,2155492512,232.0,225.0,41.0,0,0.724,788.8,78.1,1
269368,2155500511,227.0,226.0,43.0,0,0.733,788.8,78.1,1
269369,2155508511,227.0,226.0,44.0,0,0.68,788.8,78.1,1
269370,2155516510,225.0,226.0,45.0,0,0.683,788.8,78.1,1
269371,2155524511,222.0,225.0,45.0,1,0.627,788.8,78.1,1
269372,2155532511,224.0,225.0,45.0,0,0.626,788.8,78.1,1
269373,2155540510,220.0,224.0,45.0,0,0.625,788.8,78.1,1
269374,2155548511,218.0,222.0,44.0,0,0.676,788.8,78.1,1
269375,2155556511,217.0,221.0,43.0,0,0.671,788.8,78.1,1
269376,2155564511,212.0,219.0,41.0,0,0.719,788.8,78.1,1
269377,2155572513,212.0,217.0,40.0,0,0.655,788.8,78.1,1
269378,2155580511,204.0,214.0,38.0,0,0.703,788.8,78.1,1
269379,2155588511,203.0,211.0,36.0,0,0.691,788.8,78.1,1
269380,2155596512,201.0,209.0,33.0,0,0.724,788.8,78.1,1
269381,2155604510,193.0,205.0,30.0,0,0.704,788.8,78.1,1
269382,2155612513,194.0,202.0,27.0,0,0.684,788.8,78.1,1
269383,2155620511,189.0,199.0,25.0,0,0.618,788.8,78.1,1
269384,2155628511,186.0,196.0,21.0,0,0.679,784.0,78.1,1
269385,2155636511,185.0,193.0,18.0,0,0.617,784.0,78.1,1
269386,2155644512,179.0,190.0,15.0,0,0.594,784.0,78.1,1
269387,2155652510,179.0,187.0,12.0,0,0.571,784.0,78.1,1
269388,2155660510,175.0,184.0,9.0,0,0.549,784.0,78.1,1
269389,2155668512,174.0,182.0,7.0,0,0.483,784.0,78.1,1
269390,2155676511,173.0,180.0,4.0,0,0.513,784.0,78.1,1
269391,2155684512,170.0,177.0,1.0,0,0.492,784.0,78.1,1
269392,2155692510,171.0,176.0,-1.0,0,0.428,784.0,78.1,1
269393,2155700514,168.0,174.0,-3.0,0,0.434,784.0,78.1,1
269394,2155708512,168.0,172.0,-5.0,0,0.448,784.0,78.1,1
269395,2155716510,170.0,172.0,-6.0,0,0.397,784.0,78.1,1
269396,2155724510,162.0,169.0,-8.0,0,0.469,784.0,78.1,1
269397,2155732510,166.0,169.0,-10.0,0,0.483,784.0,78.1,1
269398,2155740513,163.0,167.0,-11.0,0,0.433,784.0,78.1,1
269399,2155748513,162.0,166.0,-12.0,0,0.44,784.0,78.1,1
269400,2155756511,164.0,166.0,-13.0,0,0.448,784.0,78.1,1
269401,2155764511,160.0,164.0,-14.0,0,0.455,784.0,78.1,1
269402,2155772512,162.0,164.0,-15.0,0,0.463,784.0,78.1,1
269403,2155780512,160.0,163.0,-16.0,0,0.47,784.0,78.1,1
269404,2155788512,160.0,162.0,-17.0,0,0.478,784.0,78.1,1
269405,2155796511,160.0,162.0,-18.0,0,0.485,784.0,78.1,1
269406,2155804512,157.0,160.0,-18.0,1,0.43,784.0,78.1,1
269407,2155812511,158.0,160.0,-19.0,0,0.493,784.0,78.1,1
269408,2155820514,154.0,158.0,-20.0,0,0.501,784.0,78.1,1
269409,2155828511,153.0,157.0,-21.0,0,0.508,784.0,78.1,1
269410,2155836514,156.0,157.0,-22.0,0,0.516,784.0,78.1,1
269411,2155844510,150.0,155.0,-23.0,0,0.523,784.0,78.1,1
269412,2155852513,155.0,155.0,-23.0,1,0.467,784.0,78.1,1
269413,2155860512,151.0,154.0,-24.0,0,0.531,784.0,78.1,1
269414,2155868512,149.0,153.0,-25.0,0,0.538,784.0,78.1,1
269415,2155876511,152.0,153.0,-25.0,1,0.482,784.0,78.1,1
269416,2155884511,148.0,152.0,-26.0,0,0.545,784.0,78.1,1
269417,2155892510,148.0,151.0,-27.0,0,0.552,784.0,78.1,1
269418,2155900512,146.0,150.0,-27.0,1,0.496,784.0,78.1,1
269419,2155908512,147.0,149.0,-28.0,0,0.559,784.0,78.1,1
269420,2155916512,149.0,149.0,-28.0,1,0.504,784.0,78.1,1
269421,2155924512,147.0,148.0,-29.0,0,0.566,784.0,78.1,1
269422,2155932513,149.0,149.0,-29.0,1,0.51,784.0,78.1,1
269423,2155940511,149.0,149.0,-29.0,0,0.51,776.0,78.1,1
269424,2155948512,148.0,149.0,-29.0,0,0.51,776.0,78.1,1
269425,2155956512,153.0,150.0,-29.0,0,0.51,776.0,78.1,1
269426,2155964511,153.0,150.0,-28.0,0,0.558,776.0,78.1,1
269427,2155972511,156.0,152.0,-27.0,0,0.55,776.0,78.1,1
269428,2155980511,156.0,153.0,-26.0,0,0.543,776.0,78.1,1
269429,2155988511,156.0,154.0,-25.0,0,0.535,776.0,78.1,1
269430,2155996511,159.0,155.0,-24.0,0,0.527,776.0,78.1,1
269431,2156004511,157.0,155.0,-23.0,0,0.52,776.0,78.1,1
269432,2156012511,159.0,156.0,-22.0,0,0.512,776.0,78.1,1
269433,2156020513,162.0,158.0,-21.0,0,0.504,776.0,78.1,1
269434,2156028511,164.0,159.0,-20.0,0,0.497,776.0,78.1,1
269435,2156036511,164.0,160.0,-19.0,0,0.489,776.0,78.1,1
269436,2156044511,162.0,161.0,-18.0,0,0.481,776.0,78.1,1
269437,2156052511,167.0,162.0,-17.0,0,0.474,776.0,78.1,1
269438,2156060511,165.0,163.0,-15.0,0,0.516,776.0,78.1,1
269439,2156068511,168.0,164.0,-14.0,0,0.451,776.0,78.1,1
269440,2156076512,170.0,166.0,-13.0,0,0.443,776.0,78.1,1
269441,2156084513,169.0,166.0,-12.0,0,0.436,776.0,78.1,1
269442,2156092511,173.0,168.0,-11.0,0,0.429,776.0,78.1,1
269443,2156100512,173.0,169.0,-9.0,0,0.472,776.0,78.1,1
269444,2156108512,175.0,171.0,-8.0,0,0.407,776.0,78.1,1
269445,2156116511,176.0,172.0,-7.0,0,0.401,776.0,78.1,1
269446,2156124511,172.0,172.0,-6.0,0,0.394,776.0,78.1,1
269447,2156132511,177.0,173.0,-5.0,0,0.387,776.0,78.1,1
269448,2156140511,175.0,174.0,-4.0,0,0.381,776.0,78.1,1
269449,2156148511,177.0,174.0,-3.0,0,0.374,776.0,78.1,1
269450,2156156512,179.0,176.0,-2.0,0,0.368,776.0,78.1,1
269451,2156164512,176.0,176.0,-1.0,0,0.373,776.0,78.1,1
269452,2156172511,180.0,177.0,-1.0,1,0.317,782.4,77.3,1
269453,2156180511,178.0,177.0,0.0,0,0.379,782.4,77.3,1
269454,2156188511,182.0,178.0,1.0,0,0.385,782.4,77.3,1
269455,2156196511,187.0,180.0,2.0,0,0.392,782.4,77.3,1
269456,2156204510,187.0,182.0,3.0,0,0.398,782.4,77.3,1
269457,2156212511,194.0,185.0,5.0,0,0.47,782.4,77.3,1
269458,2156220511,193.0,187.0,7.0,0,0.484,782.4,77.3,1
269459,2156228511,196.0,189.0,9.0,0,0.498,782.4,77.3,1
269460,2156236511,201.0,192.0,11.0,0,0.512,782.4,77.3,1
269461,2156244514,204.0,195.0,13.0,0,0.527,782.4,77.3,1
269462,2156252511,207.0,198.0,16.0,0,0.6,782.4,77.3,1
269463,2156260512,211.0,201.0,18.0,0,0.564,782.4,77.3,1
269464,2156268511,214.0,204.0,21.0,0,0.637,782.4,77.3,1
269465,2156276512,217.0,207.0,24.0,0,0.659,782.4,77.3,1
269466,2156284511,217.0,210.0,26.0,0,0.622,782.4,77.3,1
269467,2156292512,220.0,212.0,29.0,0,0.694,782.4,77.3,1
269468,2156300511,220.0,214.0,31.0,0,0.656,782.4,77.3,1
269469,2156308511,222.0,216.0,33.0,0,0.669,782.4,77.3,1
269470,2156316511,223.0,218.0,35.0,0,0.681,782.4,77.3,1
269471,2156324511,220.0,218.0,37.0,0,0.694,782.4,77.3,1
269472,2156332511,224.0,220.0,38.0,0,0.64,782.4,77.3,1
269473,2156340511,223.0,220.0,39.0,0,0.646,782.4,77.3,1
269474,2156348511,222.0,221.0,40.0,0,0.652,782.4,77.3,1
269475,2156356510,221.0,221.0,40.0,1,0.594,782.4,77.3,1
269476,2156364511,217.0,220.0,40.0,0,0.594,782.4,77.3,1
269477,2156372511,217.0,219.0,40.0,0,0.595,782.4,77.3,1
269478,2156380511,213.0,218.0,39.0,0,0.649,782.4,77.3,1
269479,2156388513,208.0,215.0,38.0,0,0.644,782.4,77.3,1
269480,2156396511,209.0,214.0,37.0,0,0.639,782.4,77.3,1
269481,2156404511,204.0,211.0,35.0,0,0.689,782.4,77.3,1
269482,2156412512,203.0,209.0,33.0,0,0.678,782.4,77.3,1
269483,2156420512,197.0,206.0,31.0,0,0.666,782.4,77.3,1
269484,2156428511,197.0,204.0,29.0,0,0.654,782.4,77.3,1
269485,2156436511,196.0,202.0,26.0,0,0.686,782.4,77.3,1
269486,2156444510,188.0,199.0,24.0,0,0.62,782.4,77.3,1
269487,2156452511,188.0,196.0,21.0,0,0.651,782.4,77.3,1
269488,2156460511,184.0,193.0,18.0,0,0.629,782.4,77.3,1
269489,2156468511,181.0,190.0,16.0,0,0.562,782.4,77.3,1
269490,2156476511,183.0,188.0,13.0,0,0.592,782.4,77.3,1
269491,2156484511,176.0,185.0,10.0,0,0.569,782.4,77.3,1
269492,2156492512,179.0,184.0,8.0,0,0.502,782.4,77.3,1
269493,2156500512,175.0,182.0,6.0,0,0.488,782.4,77.3,1
269494,2156508511,174.0,180.0,4.0,0,0.473,782.4,77.3,1
269495,2156516511,174.0,178.0,2.0,0,0.46,782.4,77.3,1
269496,2156524511,172.0,177.0,0.0,0,0.446,782.4,77.3,1
269497,2156532511,174.0,176.0,-2.0,0,0.434,782.4,77.3,1
269498,2156540511,169.0,174.0,-3.0,0,0.379,782.4,77.3,1
269499,2156548511,168.0,173.0,-5.0,0,0.455,782.4,77.3,1
269500,2156556510,168.0,172.0,-6.0,0,0.4,782.4,77.3,1
269501,2156564511,164.0,170.0,-8.0,0,0.478,782.4,77.3,1
269502,2156572512,167.0,169.0,-9.0,0,0.423,782.4,77.3,1
269503,2156580512,164.0,168.0,-10.0,0,0.431,782.4,77.3,1
269504,2156588513,164.0,167.0,-11.0,0,0.438,782.4,77.3,1
269505,2156596511,164.0,166.0,-12.0,0,0.446,782.4,77.3,1
269506,2156604511,161.0,165.0,-13.0,0,0.454,782.4,77.3,1
269507,2156612511,164.0,165.0,-14.0,0,0.462,782.4,77.3,1
269508,2156620511,160.0,164.0,-15.0,0,0.47,782.4,77.3,1
269509,2156628511,160.0,163.0,-16.0,0,0.478,782.4,77.3,1
269510,2156636510,162.0,163.0,-16.0,1,0.417,782.4,77.3,1
269511,2156644512,158.0,161.0,-17.0,0,0.486,782.4,77.3,1
269512,2156652511,160.0,161.0,-18.0,0,0.494,782.4,77.3,1
269513,2156660511,157.0,160.0,-18.0,1,0.433,782.4,77.3,1
269514,2156668511,157.0,159.0,-19.0,0,0.502,782.4,77.3,1
269515,2156676511,157.0,159.0,-20.0,0,0.51,782.4,77.3,1
269516,2156684511,153.0,157.0,-20.0,1,0.449,782.4,77.3,1
269517,2156692512,156.0,157.0,-21.0,0,0.518,782.4,77.3,1
269518,2156700511,153.0,156.0,-22.0,0,0.526,782.4,77.3,1
269519,2156708512,152.0,155.0,-22.0,1,0.464,782.4,77.3,1
269520,2156716511,154.0,155.0,-23.0,0,0.534,782.4,77.3,1
269521,2156724511,150.0,154.0,-24.0,0,0.541,782.4,77.3,1
269522,2156732511,154.0,154.0,-24.0,1,0.48,782.4,77.3,1
269523,2156740511,150.0,153.0,-24.0,0,0.479,782.4,77.3,1
269524,2156748511,151.0,152.0,-25.0,0,0.549,782.4,77.3,1
269525,2156756511,154.0,153.0,-25.0,1,0.487,782.4,77.3,1
269526,2156764511,152.0,153.0,-25.0,0,0.487,782.4,77.3,1
269527,2156772511,155.0,153.0,-25.0,0,0.487,782.4,77.3,1
269528,2156780511,153.0,153.0,-25.0,0,0.486,782.4,77.3,1
269529,2156788511,154.0,153.0,-25.0,0,0.486,782.4,77.3,1
269530,2156796511,156.0,154.0,-24.0,0,0.54,782.4,77.3,1
269531,2156804511,154.0,154.0,-24.0,1,0.478,808.0,77.3,1
269532,2156812511,157.0,155.0,-23.0,0,0.532,808.0,77.3,1
269533,2156820511,155.0,155.0,-23.0,1,0.471,808.0,77.3,1
269534,2156828511,155.0,155.0,-23.0,0,0.471,808.0,77.3,1
269535,2156836511,158.0,156.0,-22.0,0,0.525,808.0,77.3,1
269536,2156844512,158.0,156.0,-22.0,1,0.463,808.0,77.3,1
269537,2156852511,161.0,157.0,-21.0,0,0.517,808.0,77.3,1
269538,2156860511,160.0,158.0,-20.0,0,0.509,808.0,77.3,1
269539,2156868511,162.0,159.0,-19.0,0,0.501,808.0,77.3,1
269540,2156876511,164.0,160.0,-18.0,0,0.494,824.0,77.3,1
269541,2156884511,162.0,161.0,-17.0,0,0.486,824.0,77.3,1
269542,2156892512,166.0,162.0,-16.0,0,0.478,824.0,77.3,1
269543,2156900511,166.0,163.0,-15.0,0,0.471,824.0,77.3,1
269544,2156908512,167.0,164.0,-14.0,0,0.463,824.0,77.3,1
269545,2156916511,169.0,165.0,-13.0,0,0.456,824.0,77.3,1
269546,2156924511,167.0,166.0,-12.0,0,0.449,824.0,77.3,1
269547,2156932512,174.0,168.0,-11.0,0,0.441,824.0,77.3,1
269548,2156940511,172.0,169.0,-10.0,0,0.434,824.0,77.3,1
269549,2156948511,175.0,170.0,-8.0,0,0.482,824.0,77.3,1
269550,2156956512,176.0,172.0,-7.0,0,0.412,824.0,77.3,1
269551,2156964513,175.0,172.0,-6.0,0,0.406,824.0,77.3,1
269552,2156972511,180.0,174.0,-5.0,0,0.399,824.0,77.3,1
269553,2156980512,176.0,175.0,-3.0,0,0.448,824.0,77.3,1
269554,2156988511,175.0,175.0,-3.0,1,0.324,824.0,77.3,1
269555,2156996511,179.0,176.0,-2.0,0,0.379,824.0,77.3,1
269556,2157004511,175.0,176.0,-1.0,0,0.374,824.0,77.3,1
269557,2157012512,179.0,176.0,-1.0,1,0.312,824.0,77.3,1
269558,2157020511,177.0,177.0,0.0,0,0.38,824.0,77.3,1
269559,2157028511,177.0,177.0,0.0,1,0.317,824.0,77.3,1
269560,2157036511,180.0,177.0,1.0,0,0.386,824.0,77.3,1
269561,2157044512,179.0,178.0,1.0,1,0.324,824.0,77.3,1
269562,2157052511,185.0,180.0,2.0,0,0.392,824.0,77.3,1
269563,2157060511,187.0,181.0,3.0,0,0.399,824.0,77.3,1
269564,2157068511,191.0,184.0,5.0,0,0.478,824.0,77.3,1
269565,2157076511,196.0,187.0,6.0,0,0.422,824.0,77.3,1
269566,2157084511,200.0,190.0,9.0,0,0.562,824.0,77.3,1
269567,2157092512,208.0,194.0,12.0,0,0.586,824.0,77.3,1
269568,2157100511,209.0,198.0,14.0,0,0.549,824.0,77.3,1
269569,2157108514,215.0,202.0,18.0,0,0.673,824.0,77.3,1
269570,2157116511,222.0,207.0,21.0,0,0.658,824.0,77.3,1
269571,2157124512,224.0,211.0,25.0,0,0.727,824.0,77.3,1
269572,2157132511,232.0,216.0,29.0,0,0.756,824.0,77.3,1
269573,2157140515,232.0,220.0,33.0,0,0.782,824.0,77.3,1
269574,2157148511,236.0,224.0,37.0,0,0.806,824.0,77.3,1
269575,2157156511,239.0,228.0,41.0,0,0.828,824.0,77.3,1
269576,2157164511,237.0,230.0,44.0,0,0.804,824.0,77.3,1
269577,2157172511,238.0,232.0,47.0,0,0.816,824.0,77.3,1
269578,2157180513,234.0,232.0,49.0,0,0.771,824.0,77.3,1
269579,2157188511,231.0,232.0,50.0,0,0.711,832.0,77.3,1
269580,2157196511,231.0,232.0,50.0,1,0.648,832.0,77.3,1
269581,2157204511,227.0,231.0,51.0,0,0.715,832.0,77.3,1
269582,2157212511,227.0,230.0,50.0,1,0.711,832.0,77.3,1
269583,2157220512,222.0,228.0,49.0,0,0.707,832.0,77.3,1
269584,2157228511,218.0,225.0,48.0,0,0.703,832.0,77.3,1
269585,2157236512,216.0,223.0,46.0,0,0.76,832.0,77.3,1
269586,2157244512,208.0,219.0,44.0,0,0.75,832.0,77.3,1
269587,2157252512,209.0,217.0,42.0,0,0.741,832.0,77.3,1
269588,2157260511,201.0,213.0,39.0,0,0.779,832.0,77.3,1
269589,2157268511,199.0,210.0,36.0,0,0.762,832.0,77.3,1
269590,2157276512,195.0,206.0,32.0,0,0.773,832.0,77.3,1
269591,2157284511,187.0,201.0,29.0,0,0.716,832.0,77.3,1
269592,2157292514,185.0,197.0,25.0,0,0.724,832.0,77.3,1
269593,2157300512,176.0,192.0,20.0,0,0.708,832.0,77.3,1
269594,2157308511,173.0,188.0,16.0,0,0.652,832.0,77.3,1
269595,2157316511,171.0,184.0,12.0,0,0.619,832.0,77.3,1
269596,2157324510,164.0,179.0,7.0,0,0.603,832.0,77.3,1
269597,2157332511,164.0,175.0,3.0,0,0.548,832.0,77.3,1
269598,2157340511,160.0,172.0,-1.0,0,0.531,832.0,77.3,1
269599,2157348513,159.0,169.0,-4.0,0,0.515,832.0,77.3,1
269600,2157356511,158.0,166.0,-8.0,0,0.584,832.0,77.3,1
269601,2157364512,156.0,164.0,-11.0,0,0.57,832.0,77.3,1
269602,2157372512,156.0,162.0,-13.0,0,0.534,832.0,77.3,1
269603,2157380511,154.0,160.0,-16.0,0,0.612,832.0,77.3,1
269604,2157388511,154.0,158.0,-18.0,0,0.576,832.0,77.3,1
269605,2157396511,155.0,158.0,-20.0,0,0.592,832.0,77.3,1
269606,2157404511,152.0,156.0,-21.0,0,0.538,832.0,77.3,1
269607,2157412511,156.0,156.0,-22.0,0,0.546,832.0,77.3,1
269608,2157420511,154.0,156.0,-23.0,0,0.553,832.0,77.3,1
269609,2157428512,154.0,155.0,-24.0,0,0.561,832.0,77.3,1
269610,2157436511,156.0,155.0,-24.0,1,0.499,832.0,77.3,1
269611,2157444511,154.0,155.0,-24.0,0,0.498,832.0,77.3,1
269612,2157452512,156.0,155.0,-25.0,0,0.567,832.0,77.3,1
269613,2157460511,155.0,155.0,-25.0,1,0.504,832.0,77.3,1
269614,2157468511,156.0,155.0,-25.0,0,0.503,832.0,77.3,1
269615,2157476511,156.0,156.0,-24.0,0,0.557,832.0,77.3,1
269616,2157484512,151.0,154.0,-25.0,1,0.564,832.0,77.3,1
269617,2157492511,154.0,154.0,-25.0,1,0.501,832.0,77.3,1
269618,2157500511,148.0,153.0,-25.0,0,0.501,848.0,77.3,1
269619,2157508512,149.0,152.0,-26.0,0,0.571,848.0,77.3,1
269620,2157516511,149.0,151.0,-26.0,1,0.508,848.0,77.3,1
269621,2157524515,147.0,150.0,-27.0,0,0.578,848.0,77.3,1
269622,2157532512,150.0,150.0,-27.0,1,0.515,848.0,77.3,1
269623,2157540511,147.0,149.0,-28.0,0,0.586,784.0,78.1,1
269624,2157548515,148.0,149.0,-28.0,1,0.522,784.0,78.1,1
269625,2157556515,148.0,149.0,-28.0,0,0.522,784.0,78.1,1
269626,2157564511,145.0,148.0,-29.0,0,0.593,784.0,78.1,1
269627,2157572512,149.0,148.0,-29.0,1,0.529,784.0,78.1,1
269628,2157580511,146.0,148.0,-29.0,0,0.529,784.0,78.1,1
269629,2157588512,147.0,147.0,-29.0,0,0.529,784.0,78.1,1
269630,2157596512,150.0,148.0,-29.0,0,0.529,784.0,78.1,1
269631,2157604512,147.0,148.0,-29.0,0,0.529,784.0,78.1,1
269632,2157612512,153.0,149.0,-29.0,0,0.529,784.0,78.1,1
269633,2157620513,152.0,150.0,-28.0,0,0.585,784.0,78.1,1
269634,2157628512,156.0,151.0,-27.0,0,0.577,784.0,78.1,1
269635,2157636512,157.0,153.0,-26.0,0,0.57,784.0,78.1,1
269636,2157644511,156.0,153.0,-25.0,0,0.562,784.0,78.1,1
269637,2157652511,160.0,155.0,-24.0,0,0.554,784.0,78.1,1
269638,2157660511,159.0,156.0,-23.0,0,0.547,784.0,78.1,1
269639,2157668512,160.0,157.0,-21.0,0,0.595,784.0,78.1,1
269640,2157676511,160.0,158.0,-20.0,0,0.523,784.0,78.1,1
269641,2157684511,156.0,157.0,-20.0,1,0.46,784.0,78.1,1
269642,2157692511,160.0,158.0,-19.0,0,0.516,784.0,78.1,1
269643,2157700511,157.0,158.0,-18.0,0,0.508,784.0,78.1,1
269644,2157708512,158.0,158.0,-18.0,1,0.445,784.0,78.1,1
269645,2157716511,157.0,158.0,-18.0,0,0.446,784.0,78.1,1
269646,2157724511,155.0,157.0,-18.0,0,0.447,784.0,78.1,1
269647,2157732512,158.0,157.0,-18.0,0,0.448,784.0,78.1,1
269648,2157740511,154.0,156.0,-18.0,0,0.449,784.0,78.1,1
269649,2157748511,156.0,156.0,-18.0,0,0.45,784.0,78.1,1
269650,2157756511,157.0,156.0,-18.0,0,0.45,784.0,78.1,1
269651,2157764511,154.0,156.0,-18.0,0,0.451,784.0,78.1,1
269652,2157772513,157.0,156.0,-18.0,0,0.452,784.0,78.1,1
269653,2157780511,154.0,156.0,-18.0,0,0.452,784.0,78.1,1
269654,2157788511,156.0,156.0,-18.0,0,0.453,784.0,78.1,1
269655,2157796511,157.0,156.0,-18.0,0,0.453,784.0,78.1,1
269656,2157804511,155.0,156.0,-18.0,0,0.453,784.0,78.1,1
269657,2157812511,159.0,157.0,-18.0,0,0.454,782.4,78.1,1
269658,2157820511,156.0,156.0,-17.0,0,0.509,782.4,78.1,1
269659,2157828512,157.0,157.0,-17.0,1,0.445,782.4,78.1,1
269660,2157836510,159.0,157.0,-17.0,0,0.445,782.4,78.1,1
269661,2157844511,157.0,157.0,-16.0,0,0.501,782.4,78.1,1
269662,2157852511,160.0,158.0,-16.0,1,0.436,782.4,78.1,1
269663,2157860511,158.0,158.0,-16.0,0,0.436,782.4,78.1,1
269664,2157868511,160.0,158.0,-15.0,0,0.492,782.4,78.1,1
269665,2157876511,164.0,160.0,-15.0,1,0.427,782.4,78.1,1
269666,2157884515,160.0,160.0,-14.0,0,0.483,782.4,78.1,1
269667,2157892510,165.0,161.0,-13.0,0,0.474,782.4,78.1,1
269668,2157900512,164.0,162.0,-12.0,0,0.465,782.4,78.1,1
269669,2157908511,169.0,164.0,-11.0,0,0.456,782.4,78.1,1
269670,2157916512,172.0,166.0,-10.0,0,0.447,782.4,78.1,1
269671,2157924511,176.0,168.0,-8.0,0,0.495,782.4,78.1,1
269672,2157932511,184.0,172.0,-6.0,0,0.478,782.4,78.1,1
269673,2157940511,188.0,176.0,-3.0,0,0.507,782.4,78.1,1
269674,2157948511,194.0,180.0,0.0,0,0.507,782.4,78.1,1
269675,2157956511,201.0,185.0,4.0,0,0.576,782.4,78.1,1
269676,2157964510,204.0,190.0,8.0,0,0.61,782.4,78.1,1
269677,2157972511,212.0,195.0,12.0,0,0.645,782.4,78.1,1
269678,2157980511,214.0,200.0,16.0,0,0.679,782.4,78.1,1
269679,2157988510,220.0,205.0,21.0,0,0.745,782.4,78.1,1
269680,2157996511,225.0,210.0,25.0,0,0.754,782.4,78.1,1
269681,2158004511,228.0,214.0,29.0,0,0.783,782.4,78.1,1
269682,2158012511,236.0,219.0,34.0,0,0.839,782.4,78.1,1
269683,2158020511,233.0,223.0,38.0,0,0.837,782.4,78.1,1
269684,2158028511,236.0,226.0,42.0,0,0.857,782.4,78.1,1
269685,2158036510,236.0,228.0,45.0,0,0.831,782.4,78.1,1
269686,2158044511,236.0,230.0,48.0,0,0.842,782.4,78.1,1
269687,2158052511,239.0,232.0,51.0,0,0.851,782.4,78.1,1
269688,2158060510,236.0,233.0,52.0,0,0.737,782.4,78.1,1
269689,2158068512,237.0,234.0,54.0,0,0.806,782.4,78.1,1
269690,2158076511,236.0,235.0,55.0,0,0.745,782.4,78.1,1
269691,2158084511,231.0,234.0,56.0,0,0.747,782.4,78.1,1
269692,2158092515,232.0,233.0,56.0,1,0.685,782.4,78.1,1
269693,2158100511,227.0,232.0,55.0,0,0.743,782.4,78.1,1
269694,2158108511,223.0,230.0,54.0,0,0.74,782.4,78.1,1
269695,2158116511,221.0,228.0,53.0,0,0.737,782.4,78.1,1
269696,2158124511,214.0,224.0,51.0,0,0.793,782.4,78.1,1
269697,2158132511,213.0,222.0,48.0,0,0.835,782.4,78.1,1
269698,2158140511,206.0,218.0,45.0,0,0.822,782.4,78.1,1
269699,2158148510,205.0,215.0,42.0,0,0.808,782.4,78.1,1
269700,2158156510,203.0,212.0,39.0,0,0.792,782.4,78.1,1
269701,2158164511,192.0,207.0,36.0,0,0.775,782.4,78.1,1
269702,2158172513,194.0,204.0,32.0,0,0.788,782.4,78.1,1
269703,2158180511,190.0,201.0,29.0,0,0.729,782.4,78.1,1
269704,2158188512,186.0,197.0,25.0,0,0.736,782.4,78.1,1
269705,2158196511,184.0,194.0,22.0,0,0.674,782.4,78.1,1
269706,2158204511,181.0,191.0,19.0,0,0.649,782.4,78.1,1
269707,2158212511,180.0,188.0,15.0,0,0.653,782.4,78.1,1
269708,2158220511,174.0,185.0,12.0,0,0.589,782.4,78.1,1
269709,2158228511,173.0,182.0,9.0,0,0.564,782.4,78.1,1
269710,2158236511,172.0,179.0,6.0,0,0.539,782.4,78.1,1
269711,2158244511,167.0,176.0,3.0,0,0.515,782.4,78.1,1
269712,2158252511,168.0,174.0,1.0,0,0.447,782.4,78.1,1
269713,2158260511,164.0,172.0,-2.0,0,0.496,782.4,78.1,1
269714,2158268511,164.0,170.0,-4.0,0,0.458,782.4,78.1,1
269715,2158276510,165.0,169.0,-7.0,0,0.534,782.4,78.1,1
269716,2158284511,161.0,167.0,-8.0,0,0.428,782.4,78.1,1
269717,2158292511,164.0,166.0,-10.0,0,0.506,782.4,78.1,1
269718,2158300511,160.0,165.0,-12.0,0,0.523,782.4,78.1,1
269719,2158308511,159.0,163.0,-13.0,0,0.469,782.4,78.1,1
269720,2158316511,160.0,163.0,-14.0,0,0.478,840.0,78.9,1
269721,2158324511,158.0,161.0,-15.0,0,0.486,840.0,78.9,1
269722,2158332511,159.0,161.0,-16.0,0,0.495,840.0,78.9,1
269723,2158340512,155.0,159.0,-17.0,0,0.503,840.0,78.9,1
269724,2158348511,156.0,159.0,-18.0,0,0.512,840.0,78.9,1
269725,2158356511,156.0,158.0,-19.0,0,0.52,840.0,78.9,1
269726,2158364511,154.0,157.0,-20.0,0,0.528,840.0,78.9,1
269727,2158372511,156.0,157.0,-21.0,0,0.537,840.0,78.9,1
269728,2158380511,152.0,156.0,-21.0,1,0.476,840.0,78.9,1
269729,2158388511,153.0,155.0,-22.0,0,0.545,840.0,78.9,1
269730,2158396510,154.0,155.0,-22.0,1,0.485,840.0,78.9,1
269731,2158404511,152.0,154.0,-23.0,0,0.553,840.0,78.9,1
269732,2158412511,156.0,155.0,-23.0,1,0.493,840.0,78.9,1
269733,2158420511,154.0,154.0,-23.0,0,0.493,840.0,78.9,1
269734,2158428511,156.0,155.0,-23.0,0,0.493,840.0,78.9,1
269735,2158436513,159.0,156.0,-23.0,0,0.493,896.0,78.9,1
269736,2158444512,158.0,156.0,-22.0,0,0.545,896.0,78.9,1
269737,2158452511,162.0,158.0,-22.0,1,0.485,896.0,78.9,1
269738,2158460512,160.0,158.0,-21.0,0,0.537,896.0,78.9,1
269739,2158468511,160.0,159.0,-20.0,0,0.529,896.0,78.9,1
269740,2158476511,160.0,159.0,-20.0,1,0.469,896.0,78.9,1
269741,2158484511,157.0,159.0,-19.0,0,0.521,896.0,78.9,1
269742,2158492511,159.0,159.0,-19.0,1,0.462,896.0,78.9,1
269743,2158500512,156.0,158.0,-19.0,0,0.462,896.0,78.9,1
269744,2158508512,159.0,158.0,-19.0,0,0.463,896.0,78.9,1
269745,2158516511,161.0,159.0,-18.0,0,0.515,896.0,78.9,1
269746,2158524512,158.0,159.0,-18.0,1,0.455,896.0,78.9,1
269747,2158532511,162.0,159.0,-18.0,0,0.455,896.0,78.9,1
269748,2158540511,159.0,159.0,-17.0,0,0.507,896.0,78.9,1
269749,2158548511,160.0,160.0,-17.0,1,0.448,896.0,78.9,1
269750,2158556510,163.0,160.0,-17.0,0,0.448,896.0,78.9,1
269751,2158564511,160.0,160.0,-16.0,0,0.5,896.0,78.9,1
269752,2158572511,164.0,161.0,-16.0,1,0.44,896.0,78.9,1
269753,2158580512,162.0,161.0,-15.0,0,0.492,896.0,78.9,1
269754,2158588511,164.0,162.0,-15.0,1,0.432,896.0,78.9,1
269755,2158596510,168.0,163.0,-14.0,0,0.484,896.0,78.9,1
269756,2158604515,164.0,164.0,-13.0,0,0.475,896.0,78.9,1
269757,2158612511,165.0,164.0,-13.0,1,0.415,896.0,78.9,1
269758,2158620515,163.0,164.0,-12.0,0,0.467,896.0,78.9,1
269759,2158628512,164.0,164.0,-12.0,1,0.407,896.0,78.9,1
269760,2158636511,165.0,164.0,-12.0,0,0.407,896.0,78.9,1
269761,2158644512,164.0,164.0,-11.0,0,0.459,896.0,78.9,1
269762,2158652511,165.0,164.0,-11.0,1,0.398,896.0,78.9,1
269763,2158660511,164.0,164.0,-11.0,0,0.398,896.0,78.9,1
269764,2158668511,164.0,164.0,-11.0,0,0.398,896.0,78.9,1
269765,2158676510,166.0,165.0,-11.0,0,0.398,896.0,78.9,1
269766,2158684510,164.0,164.0,-11.0,0,0.398,896.0,78.9,1
269767,2158692514,171.0,166.0,-10.0,0,0.45,896.0,78.9,1
269768,2158700512,165.0,166.0,-10.0,1,0.389,896.0,78.9,1
269769,2158708511,164.0,165.0,-9.0,0,0.441,896.0,78.9,1
269770,2158716510,164.0,165.0,-9.0,1,0.38,896.0,78.9,1
269771,2158724511,164.0,165.0,-9.0,0,0.38,896.0,78.9,1
269772,2158732511,171.0,166.0,-9.0,0,0.38,896.0,78.9,1
269773,2158740511,170.0,167.0,-8.0,0,0.432,896.0,78.9,1
269774,2158748512,175.0,169.0,-7.0,0,0.424,896.0,78.9,1
269775,2158756512,178.0,171.0,-6.0,0,0.415,896.0,78.9,1
269776,2158764511,180.0,173.0,-5.0,0,0.407,896.0,78.9,1
269777,2158772511,188.0,177.0,-3.0,0,0.454,896.0,78.9,1
269778,2158780511,194.0,181.0,0.0,0,0.492,896.0,78.9,1
269779,2158788511,198.0,185.0,3.0,0,0.515,896.0,78.9,1
269780,2158796511,204.0,190.0,7.0,0,0.585,896.0,78.9,1
269781,2158804511,210.0,195.0,11.0,0,0.618,896.0,78.9,1
269782,2158812514,213.0,199.0,15.0,0,0.652,896.0,78.9,1
269783,2158820515,216.0,203.0,18.0,0,0.639,896.0,78.9,1
269784,2158828510,221.0,208.0,22.0,0,0.711,896.0,78.9,1
269785,2158836511,224.0,212.0,26.0,0,0.742,896.0,78.9,1
269786,2158844512,225.0,215.0,30.0,0,0.771,896.0,78.9,1
269787,2158852511,230.0,218.0,34.0,0,0.797,896.0,78.9,1
269788,2158860511,228.0,221.0,37.0,0,0.776,896.0,78.9,1
269789,2158868513,229.0,223.0,39.0,0,0.735,896.0,78.9,1
269790,2158876511,231.0,225.0,42.0,0,0.802,896.0,78.9,1
269791,2158884512,228.0,226.0,44.0,0,0.758,896.0,78.9,1
269792,2158892511,230.0,227.0,45.0,0,0.702,896.0,78.9,1
269793,2158900511,225.0,226.0,46.0,0,0.706,896.0,78.9,1
269794,2158908511,223.0,225.0,47.0,0,0.709,896.0,78.9,1
269795,2158916511,223.0,225.0,47.0,1,0.65,896.0,78.9,1
269796,2158924512,215.0,222.0,46.0,0,0.704,896.0,78.9,1
269797,2158932511,217.0,221.0,45.0,0,0.7,896.0,78.9,1
269798,2158940511,211.0,219.0,43.0,0,0.751,896.0,78.9,1
269799,2158948512,208.0,216.0,41.0,0,0.741,896.0,78.9,1
269800,2158956512,205.0,213.0,39.0,0,0.73,896.0,78.9,1
269801,2158964510,201.0,210.0,37.0,0,0.718,896.0,78.9,1
269802,2158972511,200.0,208.0,34.0,0,0.752,896.0,78.9,1
269803,2158980513,195.0,205.0,31.0,0,0.732,896.0,78.9,1
269804,2158988510,193.0,202.0,29.0,0,0.666,896.0,78.9,1
269805,2158996512,191.0,199.0,26.0,0,0.695,896.0,78.9,1
269806,2159004511,186.0,196.0,23.0,0,0.671,896.0,78.9,1
269807,2159012511,184.0,193.0,20.0,0,0.647,896.0,78.9,1
269808,2159020511,178.0,189.0,17.0,0,0.622,896.0,78.9,1
269809,2159028512,179.0,187.0,14.0,0,0.596,896.0,78.9,1
269810,2159036510,175.0,184.0,11.0,0,0.571,896.0,78.9,1
269811,2159044511,170.0,181.0,8.0,0,0.546,896.0,78.9,1
269812,2159052511,172.0,179.0,5.0,0,0.521,896.0,78.9,1
269813,2159060511,169.0,176.0,2.0,0,0.498,872.0,78.9,1
269814,2159068511,168.0,174.0,0.0,0,0.432,872.0,78.9,1
269815,2159076512,169.0,173.0,-2.0,0,0.44,872.0,78.9,1
269816,2159084511,164.0,171.0,-5.0,0,0.515,872.0,78.9,1
269817,2159092511,166.0,170.0,-6.0,0,0.411,872.0,78.9,1
269818,2159100511,161.0,168.0,-8.0,0,0.487,872.0,78.9,1
269819,2159108512,161.0,166.0,-10.0,0,0.503,872.0,78.9,1
269820,2159116511,163.0,165.0,-11.0,0,0.452,872.0,78.9,1
269821,2159124511,159.0,164.0,-13.0,0,0.528,872.0,78.9,1
269822,2159132511,158.0,162.0,-14.0,0,0.477,872.0,78.9,1
269823,2159140511,156.0,161.0,-16.0,0,0.553,872.0,78.9,1
269824,2159148511,156.0,160.0,-17.0,0,0.502,872.0,78.9,1
269825,2159156511,155.0,159.0,-18.0,0,0.51,872.0,78.9,1
269826,2159164511,155.0,158.0,-19.0,0,0.518,872.0,78.9,1
269827,2159172511,156.0,157.0,-20.0,0,0.527,872.0,78.9,1
269828,2159180511,152.0,156.0,-21.0,0,0.535,872.0,78.9,1
269829,2159188511,153.0,155.0,-22.0,0,0.543,872.0,78.9,1
269830,2159196511,156.0,155.0,-22.0,1,0.485,872.0,78.9,1
269831,2159204511,153.0,155.0,-23.0,0,0.55,872.0,78.9,1
269832,2159212515,156.0,155.0,-23.0,1,0.493,872.0,78.9,1
269833,2159220511,155.0,155.0,-23.0,0,0.493,872.0,78.9,1
269834,2159228512,152.0,154.0,-23.0,0,0.492,872.0,78.9,1
269835,2159236511,152.0,154.0,-24.0,0,0.558,872.0,78.9,1
269836,2159244515,149.0,153.0,-24.0,1,0.5,872.0,78.9,1
269837,2159252511,153.0,153.0,-24.0,0,0.5,872.0,78.9,1
269838,2159260511,149.0,152.0,-25.0,0,0.565,872.0,78.9,1
269839,2159268511,149.0,151.0,-25.0,1,0.508,872.0,78.9,1
269840,2159276511,154.0,152.0,-25.0,0,0.507,872.0,78.9,1
269841,2159284511,148.0,151.0,-25.0,0,0.507,872.0,78.9,1
269842,2159292510,151.0,151.0,-26.0,0,0.572,872.0,78.9,1
269843,2159300511,148.0,150.0,-26.0,1,0.515,872.0,78.9,1
269844,2159308511,148.0,150.0,-26.0,0,0.515,872.0,78.9,1
269845,2159316513,149.0,150.0,-26.0,0,0.515,872.0,78.9,1
269846,2159324511,147.0,149.0,-27.0,0,0.58,872.0,78.9,1
269847,2159332511,149.0,149.0,-27.0,1,0.522,872.0,78.9,1
269848,2159340511,146.0,148.0,-27.0,0,0.522,872.0,78.9,1
269849,2159348511,148.0,148.0,-27.0,0,0.522,872.0,78.9,1
269850,2159356512,149.0,148.0,-27.0,0,0.522,872.0,78.9,1
269851,2159364512,148.0,148.0,-27.0,0,0.522,872.0,78.9,1
269852,2159372512,154.0,150.0,-27.0,0,0.522,824.0,78.9,1
269853,2159380513,148.0,149.0,-26.0,0,0.571,824.0,78.9,1
269854,2159388511,156.0,151.0,-26.0,1,0.514,824.0,78.9,1
269855,2159396512,153.0,151.0,-25.0,0,0.563,824.0,78.9,1
269856,2159404511,152.0,152.0,-24.0,0,0.555,824.0,78.9,1
269857,2159412511,157.0,153.0,-24.0,1,0.498,824.0,78.9,1
269858,2159420511,155.0,153.0,-23.0,0,0.547,824.0,78.9,1
269859,2159428510,157.0,154.0,-22.0,0,0.539,824.0,78.9,1
269860,2159436511,161.0,156.0,-21.0,0,0.53,824.0,78.9,1
269861,2159444511,161.0,157.0,-20.0,0,0.522,824.0,78.9,1
269862,2159452511,165.0,159.0,-18.0,0,0.565,824.0,78.9,1
269863,2159460511,164.0,160.0,-17.0,0,0.497,824.0,78.9,1
269864,2159468511,165.0,161.0,-15.0,0,0.539,824.0,78.9,1
269865,2159476511,166.0,163.0,-14.0,0,0.471,824.0,78.9,1
269866,2159484511,165.0,163.0,-13.0,0,0.463,824.0,78.9,1
269867,2159492511,172.0,165.0,-12.0,0,0.455,824.0,78.9,1
269868,2159500512,170.0,166.0,-10.0,0,0.497,824.0,78.9,1
269869,2159508511,169.0,167.0,-9.0,0,0.43,824.0,78.9,1
269870,2159516511,172.0,168.0,-8.0,0,0.422,824.0,78.9,1
269871,2159524511,167.0,168.0,-7.0,0,0.414,824.0,78.9,1
269872,2159532511,172.0,169.0,-6.0,0,0.406,824.0,78.9,1
269873,2159540513,168.0,169.0,-6.0,1,0.349,824.0,78.9,1
269874,2159548511,169.0,169.0,-5.0,0,0.399,824.0,78.9,1
269875,2159556512,170.0,169.0,-5.0,1,0.341,824.0,78.9,1
269876,2159564511,164.0,168.0,-5.0,0,0.341,824.0,78.9,1
269877,2159572511,171.0,169.0,-5.0,0,0.341,824.0,78.9,1
269878,2159580512,169.0,169.0,-5.0,0,0.341,824.0,78.9,1
269879,2159588515,172.0,170.0,-4.0,0,0.391,824.0,78.9,1
269880,2159596511,172.0,170.0,-4.0,1,0.333,824.0,78.9,1
269881,2159604511,172.0,171.0,-3.0,0,0.383,824.0,78.9,1
269882,2159612511,176.0,172.0,-3.0,1,0.326,824.0,78.9,1
269883,2159620512,174.0,172.0,-2.0,0,0.376,824.0,78.9,1
269884,2159628511,178.0,174.0,-1.0,0,0.37,824.0,78.9,1
269885,2159636511,180.0,175.0,0.0,0,0.377,824.0,78.9,1
269886,2159644511,180.0,176.0,1.0,0,0.385,824.0,78.9,1
269887,2159652511,185.0,178.0,2.0,0,0.393,824.0,78.9,1
269888,2159660511,187.0,181.0,4.0,0,0.468,824.0,78.9,1
269889,2159668513,195.0,184.0,6.0,0,0.484,824.0,78.9,1
269890,2159676511,198.0,187.0,8.0,0,0.501,824.0,78.9,1
269891,2159684511,198.0,190.0,11.0,0,0.579,824.0,78.9,1
269892,2159692511,209.0,195.0,14.0,0,0.605,824.0,78.9,1
269893,2159700511,209.0,198.0,17.0,0,0.631,824.0,78.9,1
269894,2159708511,215.0,202.0,20.0,0,0.657,824.0,78.9,1
269895,2159716514,218.0,206.0,23.0,0,0.682,824.0,78.9,1
269896,2159724511,220.0,209.0,27.0,0,0.753,824.0,78.9,1
269897,2159732511,224.0,213.0,30.0,0,0.736,824.0,78.9,1
269898,2159740511,221.0,215.0,33.0,0,0.757,824.0,78.9,1
269899,2159748510,223.0,217.0,36.0,0,0.776,824.0,78.9,1
269900,2159756511,224.0,219.0,38.0,0,0.735,824.0,78.9,1
269901,2159764511,220.0,219.0,39.0,0,0.681,824.0,78.9,1
269902,2159772511,223.0,220.0,41.0,0,0.752,824.0,78.9,1
269903,2159780510,219.0,220.0,41.0,1,0.634,824.0,78.9,1
269904,2159788512,220.0,220.0,42.0,0,0.697,824.0,78.9,1
269905,2159796510,220.0,220.0,42.0,1,0.639,824.0,78.9,1
269906,2159804511,217.0,219.0,42.0,0,0.639,824.0,78.9,1
269907,2159812511,219.0,219.0,42.0,0,0.639,824.0,78.9,1
269908,2159820511,216.0,218.0,42.0,0,0.639,824.0,78.9,1
269909,2159828511,212.0,217.0,41.0,0,0.694,824.0,78.9,1
269910,2159836511,212.0,216.0,40.0,0,0.689,824.0,78.9,1
269911,2159844512,206.0,213.0,39.0,0,0.684,824.0,78.9,1
269912,2159852512,205.0,211.0,37.0,0,0.734,824.0,78.9,1
269913,2159860512,199.0,208.0,35.0,0,0.723,824.0,78.9,1
269914,2159868511,196.0,205.0,32.0,0,0.757,824.0,78.9,1
269915,2159876511,194.0,203.0,30.0,0,0.691,824.0,78.9,1
269916,2159884511,188.0,199.0,27.0,0,0.722,824.0,78.9,1
269917,2159892511,187.0,196.0,24.0,0,0.7,824.0,78.9,1
269918,2159900510,182.0,193.0,21.0,0,0.675,824.0,78.9,1
269919,2159908512,183.0,190.0,18.0,0,0.65,824.0,78.9,1
269920,2159916511,180.0,188.0,15.0,0,0.624,824.0,78.9,1
269921,2159924511,175.0,185.0,12.0,0,0.598,824.0,78.9,1
269922,2159932510,175.0,182.0,10.0,0,0.527,824.0,78.9,1
269923,2159940511,172.0,180.0,7.0,0,0.555,824.0,78.9,1
269924,2159948510,172.0,178.0,4.0,0,0.53,824.0,78.9,1
269925,2159956512,172.0,177.0,2.0,0,0.46,824.0,78.9,1
269926,2159964511,169.0,175.0,0.0,0,0.445,824.0,78.9,1
269927,2159972511,170.0,174.0,-2.0,0,0.445,824.0,78.9,1
269928,2159980510,164.0,171.0,-3.0,0,0.39,824.0,78.9,1
269929,2159988511,164.0,169.0,-5.0,0,0.469,824.0,78.9,1
269930,2159996513,163.0,168.0,-7.0,0,0.486,864.0,78.9,1
269931,2160004512,159.0,166.0,-9.0,0,0.502,864.0,78.9,1
269932,2160012511,160.0,164.0,-11.0,0,0.519,864.0,78.9,1
269933,2160020511,156.0,162.0,-12.0,0,0.465,864.0,78.9,1
269934,2160028511,156.0,161.0,-14.0,0,0.546,864.0,78.9,1
269935,2160036512,156.0,160.0,-15.0,0,0.492,864.0,78.9,1
269936,2160044512,156.0,159.0,-17.0,0,0.572,864.0,78.9,1
269937,2160052511,155.0,158.0,-18.0,0,0.518,864.0,78.9,1
269938,2160060511,153.0,157.0,-19.0,0,0.527,864.0,78.9,1
269939,2160068511,152.0,156.0,-20.0,0,0.536,864.0,78.9,1
269940,2160076512,152.0,155.0,-21.0,0,0.545,864.0,78.9,1
269941,2160084511,148.0,153.0,-22.0,0,0.553,864.0,78.9,1
269942,2160092511,152.0,153.0,-23.0,0,0.562,864.0,78.9,1
269943,2160100511,148.0,152.0,-24.0,0,0.57,864.0,78.9,1
269944,2160108511,151.0,151.0,-24.0,1,0.509,864.0,78.9,1
269945,2160116511,151.0,151.0,-25.0,0,0.579,864.0,78.9,1
269946,2160124516,149.0,151.0,-25.0,1,0.518,864.0,78.9,1
269947,2160132511,150.0,151.0,-26.0,0,0.587,864.0,78.9,1
269948,2160140511,149.0,150.0,-26.0,1,0.526,864.0,78.9,1
269949,2160148511,150.0,150.0,-26.0,0,0.526,864.0,78.9,1
269950,2160156512,150.0,150.0,-26.0,0,0.526,864.0,78.9,1
269951,2160164511,148.0,150.0,-26.0,0,0.526,864.0,78.9,1
269952,2160172511,151.0,150.0,-26.0,0,0.527,864.0,78.9,1
269953,2160180511,149.0,150.0,-26.0,0,0.527,864.0,78.9,1
269954,2160188512,152.0,150.0,-26.0,0,0.527,864.0,78.9,1
269955,2160196511,152.0,151.0,-26.0,0,0.527,864.0,78.9,1
269956,2160204510,150.0,151.0,-25.0,0,0.58,864.0,78.9,1
269957,2160212511,154.0,151.0,-25.0,1,0.519,864.0,78.9,1
269958,2160220512,153.0,152.0,-24.0,0,0.572,864.0,78.9,1
269959,2160228511,155.0,153.0,-24.0,1,0.511,864.0,78.9,1
269960,2160236511,157.0,154.0,-23.0,0,0.564,864.0,78.9,1
269961,2160244511,155.0,154.0,-22.0,0,0.555,864.0,78.9,1
269962,2160252511,157.0,155.0,-22.0,1,0.494,864.0,78.9,1
269963,2160260511,156.0,155.0,-21.0,0,0.547,864.0,78.9,1
269964,2160268512,158.0,156.0,-20.0,0,0.538,864.0,78.9,1
269965,2160276511,161.0,157.0,-19.0,0,0.529,864.0,78.9,1
269966,2160284512,159.0,157.0,-19.0,1,0.468,864.0,78.9,1
269967,2160292511,162.0,159.0,-18.0,0,0.521,864.0,78.9,1
269968,2160300511,159.0,159.0,-17.0,0,0.512,864.0,78.9,1
269969,2160308511,160.0,159.0,-16.0,0,0.503,888.0,78.9,1
269970,2160316512,162.0,160.0,-16.0,1,0.442,888.0,78.9,1
269971,2160324511,160.0,160.0,-15.0,0,0.495,888.0,78.9,1
269972,2160332510,164.0,161.0,-14.0,0,0.486,888.0,78.9,1
269973,2160340511,164.0,162.0,-14.0,1,0.425,888.0,78.9,1
269974,2160348512,167.0,163.0,-13.0,0,0.478,888.0,78.9,1
269975,2160356511,168.0,164.0,-12.0,0,0.469,888.0,78.9,1
269976,2160364511,166.0,165.0,-11.0,0,0.461,888.0,78.9,1
269977,2160372511,168.0,165.0,-10.0,0,0.452,888.0,78.9,1
269978,2160380511,170.0,167.0,-9.0,0,0.444,888.0,78.9,1
269979,2160388511,172.0,168.0,-8.0,0,0.436,888.0,78.9,1
269980,2160396512,173.0,169.0,-7.0,0,0.427,888.0,78.9,1
269981,2160404511,173.0,170.0,-6.0,0,0.419,888.0,78.9,1
269982,2160412510,177.0,172.0,-4.0,0,0.466,888.0,78.9,1
269983,2160420511,176.0,173.0,-3.0,0,0.396,888.0,78.9,1
269984,2160428511,176.0,174.0,-2.0,0,0.388,888.0,78.9,1
269985,2160436511,177.0,174.0,-1.0,0,0.381,888.0,78.9,1
269986,2160444511,173.0,174.0,0.0,0,0.374,888.0,78.9,1
269987,2160452511,177.0,175.0,0.0,1,0.313,888.0,78.9,1
269988,2160460513,176.0,175.0,1.0,0,0.379,888.0,78.9,1
269989,2160468512,177.0,176.0,1.0,1,0.318,888.0,78.9,1
269990,2160476515,177.0,176.0,2.0,0,0.386,888.0,78.9,1
269991,2160484510,176.0,176.0,2.0,1,0.325,888.0,78.9,1
269992,2160492512,177.0,176.0,2.0,0,0.324,888.0,78.9,1
269993,2160500511,173.0,175.0,2.0,0,0.324,888.0,78.9,1
269994,2160508511,174.0,175.0,2.0,0,0.324,888.0,78.9,1
269995,2160516511,174.0,175.0,2.0,0,0.324,888.0,78.9,1
269996,2160524511,171.0,174.0,2.0,0,0.324,888.0,78.9,1
269997,2160532511,172.0,173.0,1.0,0,0.379,888.0,78.9,1
269998,2160540511,170.0,173.0,1.0,1,0.317,888.0,78.9,1
269999,2160548512,171.0,172.0,0.0,0,0.378,888.0,78.9,1
270000,2160556511,171.0,172.0,0.0,1,0.313,888.0,78.9,1
270001,2160564511,169.0,171.0,-1.0,0,0.385,888.0,78.9,1
270002,2160572511,173.0,172.0,-1.0,1,0.32,888.0,78.9,1
270003,2160580512,173.0,172.0,-1.0,0,0.319,888.0,78.9,1
270004,2160588511,178.0,173.0,-1.0,0,0.318,888.0,78.9,1
270005,2160596510,182.0,176.0,0.0,0,0.382,888.0,78.9,1
270006,2160604511,184.0,178.0,1.0,0,0.391,888.0,78.9,1
270007,2160612513,192.0,181.0,3.0,0,0.478,888.0,78.9,1
270008,2160620512,193.0,184.0,5.0,0,0.497,888.0,78.9,1
270009,2160628512,198.0,187.0,8.0,0,0.579,888.0,78.9,1
270010,2160636511,204.0,191.0,11.0,0,0.609,888.0,78.9,1
270011,2160644511,206.0,195.0,14.0,0,0.639,888.0,78.9,1
270012,2160652511,214.0,200.0,17.0,0,0.669,888.0,78.9,1
270013,2160660511,216.0,204.0,21.0,0,0.743,888.0,78.9,1
270014,2160668511,220.0,208.0,24.0,0,0.734,888.0,78.9,1
270015,2160676511,223.0,211.0,28.0,0,0.804,888.0,78.9,1
270016,2160684511,224.0,214.0,31.0,0,0.79,888.0,78.9,1
270017,2160692511,228.0,218.0,35.0,0,0.852,888.0,78.9,1
270018,2160700513,227.0,220.0,37.0,0,0.772,888.0,78.9,1
270019,2160708512,225.0,221.0,40.0,0,0.841,888.0,78.9,1
270020,2160716511,228.0,223.0,42.0,0,0.796,888.0,78.9,1
270021,2160724511,224.0,223.0,43.0,0,0.733,888.0,78.9,1
270022,2160732511,227.0,224.0,44.0,0,0.737,888.0,78.9,1
270023,2160740511,222.0,224.0,45.0,0,0.74,888.0,78.9,1
270024,2160748511,223.0,223.0,45.0,1,0.673,888.0,78.9,1
270025,2160756511,221.0,223.0,45.0,0,0.672,888.0,78.9,1
270026,2160764511,215.0,221.0,45.0,0,0.671,888.0,78.9,1
270027,2160772511,217.0,220.0,44.0,0,0.734,888.0,78.9,1
270028,2160780511,211.0,218.0,43.0,0,0.729,888.0,78.9,1
270029,2160788511,209.0,216.0,41.0,0,0.789,888.0,78.9,1
270030,2160796511,207.0,214.0,39.0,0,0.778,888.0,78.9,1
270031,2160804511,203.0,211.0,37.0,0,0.767,888.0,78.9,1
270032,2160812511,204.0,209.0,35.0,0,0.754,888.0,78.9,1
270033,2160820511,198.0,207.0,33.0,0,0.741,888.0,78.9,1
270034,2160828511,198.0,204.0,31.0,0,0.726,888.0,78.9,1
270035,2160836511,196.0,202.0,28.0,0,0.758,888.0,78.9,1
270036,2160844511,189.0,199.0,26.0,0,0.686,888.0,78.9,1
270037,2160852511,191.0,197.0,23.0,0,0.715,888.0,78.9,1
270038,2160860511,187.0,195.0,21.0,0,0.641,888.0,78.9,1
270039,2160868511,188.0,193.0,19.0,0,0.623,888.0,78.9,1
270040,2160876512,185.0,191.0,16.0,0,0.648,888.0,72.8,1
270041,2160884511,181.0,189.0,14.0,0,0.574,888.0,72.8,1
270042,2160892511,182.0,187.0,12.0,0,0.554,888.0,72.8,1
270043,2160900511,179.0,185.0,10.0,0,0.535,888.0,72.8,1
270044,2160908513,177.0,183.0,8.0,0,0.516,888.0,72.8,1
270045,2160916511,178.0,182.0,6.0,0,0.497,888.0,72.8,1
270046,2160924511,175.0,180.0,4.0,0,0.479,888.0,72.8,1
270047,2160932512,172.0,178.0,2.0,0,0.461,928.0,72.8,1
270048,2160940512,168.0,176.0,0.0,0,0.452,928.0,72.8,1
270049,2160948512,170.0,174.0,-1.0,0,0.392,928.0,72.8,1
270050,2160956514,171.0,174.0,-3.0,0,0.478,928.0,72.8,1
270051,2160964512,167.0,172.0,-4.0,0,0.419,928.0,72.8,1
270052,2160972511,167.0,171.0,-6.0,0,0.505,928.0,72.8,1
270053,2160980511,165.0,169.0,-7.0,0,0.446,928.0,72.8,1
270054,2160988512,164.0,168.0,-9.0,0,0.533,928.0,72.8,1
270055,2160996511,164.0,167.0,-10.0,0,0.475,928.0,72.8,1
270056,2161004511,162.0,166.0,-11.0,0,0.485,928.0,72.8,1
270057,2161012512,164.0,165.0,-12.0,0,0.495,928.0,72.8,1
270058,2161020513,160.0,164.0,-13.0,0,0.505,928.0,72.8,1
270059,2161028511,163.0,164.0,-14.0,0,0.515,928.0,72.8,1
270060,2161036513,160.0,163.0,-14.0,1,0.448,928.0,72.8,1
270061,2161044512,158.0,162.0,-15.0,0,0.525,928.0,72.8,1
270062,2161052510,160.0,161.0,-16.0,0,0.534,928.0,72.8,1
270063,2161060511,156.0,160.0,-17.0,0,0.544,928.0,72.8,1
270064,2161068511,157.0,159.0,-18.0,0,0.553,928.0,72.8,1
270065,2161076511,157.0,159.0,-18.0,1,0.486,928.0,72.8,1
270066,2161084511,155.0,158.0,-19.0,0,0.562,928.0,72.8,1
270067,2161092511,156.0,157.0,-20.0,0,0.571,928.0,72.8,1
270068,2161100512,153.0,156.0,-20.0,1,0.504,928.0,72.8,1
270069,2161108511,152.0,155.0,-21.0,0,0.58,928.0,72.8,1
270070,2161116511,153.0,155.0,-22.0,0,0.588,928.0,72.8,1
270071,2161124512,151.0,154.0,-22.0,1,0.521,928.0,72.8,1
270072,2161132512,153.0,154.0,-23.0,0,0.596,928.0,72.8,1
270073,2161140512,152.0,153.0,-23.0,1,0.529,928.0,72.8,1
270074,2161148511,152.0,153.0,-24.0,0,0.604,928.0,72.8,1
270075,2161156512,154.0,153.0,-24.0,1,0.536,928.0,72.8,1
270076,2161164511,149.0,152.0,-24.0,0,0.535,928.0,72.8,1
270077,2161172512,155.0,153.0,-24.0,0,0.535,928.0,72.8,1
270078,2161180512,152.0,153.0,-24.0,0,0.534,928.0,72.8,1
270079,2161188511,153.0,153.0,-24.0,0,0.534,928.0,72.8,1
270080,2161196511,154.0,153.0,-24.0,0,0.533,928.0,72.8,1
270081,2161204511,151.0,153.0,-24.0,0,0.533,928.0,72.8,1
270082,2161212513,155.0,153.0,-24.0,0,0.532,928.0,72.8,1
270083,2161220511,154.0,153.0,-23.0,0,0.59,928.0,72.8,1
270084,2161228511,156.0,154.0,-23.0,1,0.522,928.0,72.8,1
270085,2161236515,156.0,154.0,-22.0,0,0.581,928.0,72.8,1
270086,2161244512,156.0,155.0,-22.0,1,0.513,952.0,72.8,1
270087,2161252511,157.0,155.0,-21.0,0,0.571,952.0,72.8,1
270088,2161260510,157.0,156.0,-21.0,1,0.503,952.0,72.8,1
270089,2161268511,160.0,157.0,-20.0,0,0.561,952.0,72.8,1
270090,2161276512,160.0,158.0,-19.0,0,0.552,952.0,72.8,1
270091,2161284511,159.0,158.0,-19.0,1,0.484,952.0,72.8,1
270092,2161292511,164.0,159.0,-18.0,0,0.542,952.0,72.8,1
270093,2161300511,161.0,160.0,-17.0,0,0.532,952.0,72.8,1
270094,2161308511,164.0,161.0,-16.0,0,0.523,952.0,72.8,1
270095,2161316512,163.0,161.0,-15.0,0,0.513,952.0,72.8,1
270096,2161324511,161.0,161.0,-15.0,1,0.445,952.0,72.8,1
270097,2161332514,164.0,162.0,-14.0,0,0.503,952.0,72.8,1
270098,2161340512,163.0,162.0,-13.0,0,0.494,952.0,72.8,1
270099,2161348511,164.0,163.0,-13.0,1,0.426,952.0,72.8,1
270100,2161356511,164.0,163.0,-12.0,0,0.484,952.0,72.8,1
270101,2161364511,163.0,163.0,-12.0,1,0.416,952.0,72.8,1
270102,2161372511,165.0,163.0,-12.0,0,0.415,952.0,72.8,1
270103,2161380511,164.0,164.0,-11.0,0,0.475,952.0,72.8,1
270104,2161388511,164.0,164.0,-11.0,1,0.404,952.0,72.8,1
270105,2161396510,166.0,164.0,-11.0,0,0.403,952.0,72.8,1
270106,2161404511,164.0,164.0,-10.0,0,0.465,952.0,72.8,1
270107,2161412511,168.0,165.0,-10.0,1,0.392,952.0,72.8,1
270108,2161420511,166.0,165.0,-9.0,0,0.456,952.0,72.8,1
270109,2161428511,170.0,166.0,-9.0,1,0.381,952.0,72.8,1
270110,2161436511,170.0,167.0,-8.0,0,0.445,952.0,72.8,1
270111,2161444511,168.0,167.0,-7.0,0,0.436,952.0,72.8,1
270112,2161452512,173.0,169.0,-7.0,1,0.36,952.0,72.8,1
270113,2161460510,172.0,170.0,-6.0,0,0.425,952.0,72.8,1
270114,2161468511,175.0,171.0,-5.0,0,0.415,952.0,72.8,1
270115,2161476511,176.0,172.0,-4.0,0,0.405,952.0,72.8,1
270116,2161484511,174.0,173.0,-3.0,0,0.395,952.0,72.8,1
270117,2161492511,180.0,174.0,-2.0,0,0.388,952.0,72.8,1
270118,2161500510,180.0,176.0,-1.0,0,0.397,952.0,72.8,1
270119,2161508511,186.0,178.0,1.0,0,0.49,952.0,72.8,1
270120,2161516511,191.0,181.0,3.0,0,0.51,952.0,72.8,1
270121,2161524510,191.0,184.0,5.0,0,0.531,952.0,72.8,1
270122,2161532512,199.0,187.0,7.0,0,0.552,952.0,72.8,1
270123,2161540511,199.0,190.0,10.0,0,0.639,952.0,72.8,1
270124,2161548511,204.0,194.0,13.0,0,0.671,952.0,72.8,1
270125,2161556511,206.0,197.0,16.0,0,0.701,968.0,72.8,1
270126,2161564513,207.0,199.0,18.0,0,0.666,968.0,72.8,1
270127,2161572512,212.0,202.0,21.0,0,0.749,968.0,72.8,1
270128,2161580511,209.0,204.0,23.0,0,0.712,968.0,72.8,1
270129,2161588511,212.0,206.0,26.0,0,0.79,968.0,72.8,1
270130,2161596512,214.0,208.0,28.0,0,0.749,968.0,72.8,1
270131,2161604511,212.0,209.0,29.0,0,0.682,968.0,72.8,1
270132,2161612511,217.0,211.0,31.0,0,0.768,968.0,72.8,1
270133,2161620511,213.0,211.0,32.0,0,0.699,968.0,72.8,1
270134,2161628511,213.0,212.0,33.0,0,0.704,968.0,72.8,1
270135,2161636511,212.0,212.0,34.0,0,0.709,968.0,72.8,1
270136,2161644511,210.0,211.0,34.0,1,0.63,968.0,72.8,1
270137,2161652512,213.0,212.0,35.0,0,0.712,968.0,72.8,1
270138,2161660511,208.0,211.0,34.0,1,0.704,968.0,72.8,1
270139,2161668511,205.0,209.0,34.0,1,0.625,968.0,72.8,1
270140,2161676511,205.0,208.0,33.0,0,0.696,968.0,72.8,1
270141,2161684511,201.0,207.0,32.0,0,0.688,968.0,72.8,1
270142,2161692511,200.0,205.0,31.0,0,0.68,968.0,72.8,1
270143,2161700513,193.0,202.0,29.0,0,0.74,968.0,72.8,1
270144,2161708512,194.0,200.0,27.0,0,0.723,968.0,72.8,1
270145,2161716511,191.0,198.0,25.0,0,0.706,968.0,72.8,1
270146,2161724511,186.0,195.0,23.0,0,0.687,968.0,72.8,1
270147,2161732511,188.0,193.0,20.0,0,0.714,968.0,72.8,1
270148,2161740511,183.0,191.0,18.0,0,0.639,968.0,72.8,1
270149,2161748511,183.0,189.0,16.0,0,0.618,968.0,72.8,1
270150,2161756511,182.0,187.0,14.0,0,0.598,968.0,72.8,1
270151,2161764511,180.0,185.0,12.0,0,0.577,968.0,72.8,1
270152,2161772513,184.0,185.0,10.0,0,0.556,968.0,72.8,1
270153,2161780511,179.0,184.0,9.0,0,0.471,968.0,72.8,1
270154,2161788512,180.0,183.0,7.0,0,0.525,968.0,72.8,1
270155,2161796511,180.0,182.0,6.0,0,0.441,968.0,72.8,1
270156,2161804511,176.0,181.0,5.0,0,0.431,968.0,72.8,1
270157,2161812512,178.0,180.0,4.0,0,0.421,968.0,72.8,1
270158,2161820511,174.0,179.0,3.0,0,0.411,968.0,72.8,1
270159,2161828510,173.0,177.0,2.0,0,0.402,968.0,72.8,1
270160,2161836512,172.0,176.0,0.0,0,0.464,968.0,72.8,1
270161,2161844511,169.0,174.0,-1.0,0,0.4,968.0,72.8,1
270162,2161852512,172.0,174.0,-2.0,0,0.409,968.0,72.8,1
270163,2161860510,166.0,172.0,-3.0,0,0.419,968.0,72.8,1
270164,2161868512,167.0,171.0,-5.0,0,0.511,920.0,72.8,1
270165,2161876512,167.0,170.0,-6.0,0,0.448,920.0,72.8,1
270166,2161884513,163.0,168.0,-7.0,0,0.458,920.0,72.8,1
270167,2161892511,167.0,168.0,-8.0,0,0.469,920.0,72.8,1
270168,2161900512,163.0,167.0,-9.0,0,0.48,920.0,72.8,1
270169,2161908511,165.0,166.0,-10.0,0,0.491,920.0,72.8,1
270170,2161916512,166.0,166.0,-10.0,1,0.417,920.0,72.8,1
270171,2161924511,163.0,165.0,-11.0,0,0.502,920.0,72.8,1
270172,2161932512,166.0,166.0,-11.0,1,0.428,920.0,72.8,1
270173,2161940510,162.0,165.0,-12.0,0,0.514,920.0,72.8,1
270174,2161948511,164.0,165.0,-12.0,1,0.44,920.0,72.8,1
270175,2161956513,164.0,164.0,-13.0,0,0.526,920.0,72.8,1
270176,2161964511,162.0,164.0,-13.0,1,0.452,920.0,72.8,1
270177,2161972515,164.0,164.0,-13.0,0,0.452,920.0,72.8,1
270178,2161980511,160.0,163.0,-14.0,0,0.538,920.0,72.8,1
270179,2161988511,161.0,162.0,-14.0,1,0.464,920.0,72.8,1
270180,2161996510,161.0,162.0,-14.0,0,0.464,920.0,72.8,1
270181,2162004512,160.0,162.0,-15.0,0,0.549,920.0,72.8,1
270182,2162012511,161.0,161.0,-15.0,1,0.475,920.0,72.8,1
270183,2162020511,159.0,161.0,-15.0,0,0.475,920.0,72.8,1
270184,2162028512,157.0,160.0,-16.0,0,0.56,920.0,72.8,1
270185,2162036511,158.0,159.0,-16.0,1,0.485,920.0,72.8,1
270186,2162044511,156.0,159.0,-17.0,0,0.57,920.0,72.8,1
270187,2162052510,161.0,159.0,-17.0,1,0.495,920.0,72.8,1
270188,2162060511,158.0,159.0,-17.0,0,0.495,920.0,72.8,1
270189,2162068512,160.0,159.0,-17.0,0,0.494,920.0,72.8,1
270190,2162076511,160.0,159.0,-17.0,0,0.494,920.0,72.8,1
270191,2162084511,156.0,159.0,-17.0,0,0.493,920.0,72.8,1
270192,2162092513,160.0,159.0,-17.0,0,0.493,920.0,72.8,1
270193,2162100511,157.0,158.0,-17.0,0,0.492,920.0,72.8,1
270194,2162108512,158.0,158.0,-17.0,0,0.492,920.0,72.8,1
270195,2162116511,159.0,158.0,-17.0,0,0.491,920.0,72.8,1
270196,2162124510,156.0,158.0,-17.0,0,0.491,920.0,72.8,1
270197,2162132512,159.0,158.0,-17.0,0,0.49,920.0,72.8,1
270198,2162140511,155.0,157.0,-17.0,0,0.489,920.0,72.8,1
270199,2162148511,157.0,157.0,-17.0,0,0.489,920.0,72.8,1
270200,2162156512,157.0,157.0,-18.0,0,0.574,920.0,72.8,1
270201,2162164511,156.0,157.0,-18.0,1,0.497,920.0,72.8,1
270202,2162172511,160.0,158.0,-17.0,0,0.563,920.0,72.8,1
270203,2162180511,157.0,158.0,-17.0,1,0.486,904.0,72.8,1
270204,2162188511,157.0,157.0,-17.0,0,0.486,904.0,72.8,1
270205,2162196511,159.0,158.0,-17.0,0,0.485,904.0,72.8,1
270206,2162204511,157.0,158.0,-17.0,0,0.484,904.0,72.8,1
270207,2162212511,160.0,158.0,-17.0,0,0.484,904.0,72.8,1
270208,2162220510,156.0,158.0,-17.0,0,0.483,904.0,72.8,1
270209,2162228512,155.0,157.0,-17.0,0,0.482,904.0,72.8,1
270210,2162236512,154.0,156.0,-17.0,0,0.481,904.0,72.8,1
270211,2162244512,151.0,155.0,-17.0,0,0.48,904.0,72.8,1
270212,2162252510,154.0,155.0,-18.0,0,0.566,904.0,72.8,1
270213,2162260511,152.0,154.0,-18.0,1,0.488,904.0,72.8,1
270214,2162268512,155.0,154.0,-18.0,0,0.487,904.0,72.8,1
270215,2162276511,156.0,155.0,-18.0,0,0.486,904.0,72.8,1
270216,2162284511,157.0,155.0,-18.0,0,0.485,904.0,72.8,1
270217,2162292511,162.0,157.0,-18.0,0,0.483,904.0,72.8,1
270218,2162300511,163.0,158.0,-17.0,0,0.554,904.0,72.8,1
270219,2162308512,169.0,161.0,-15.0,0,0.611,904.0,72.8,1
270220,2162316512,173.0,164.0,-13.0,0,0.59,904.0,72.8,1
270221,2162324511,173.0,166.0,-11.0,0,0.569,904.0,72.8,1
270222,2162332511,183.0,170.0,-9.0,0,0.547,904.0,72.8,1
270223,2162340511,183.0,173.0,-6.0,0,0.57,904.0,72.8,1
270224,2162348511,190.0,177.0,-3.0,0,0.539,904.0,72.8,1
270225,2162356511,194.0,181.0,0.0,0,0.537,904.0,72.8,1
270226,2162364513,195.0,185.0,4.0,0,0.607,904.0,72.8,1
270227,2162372511,202.0,189.0,7.0,0,0.607,904.0,72.8,1
270228,2162380511,203.0,192.0,11.0,0,0.682,904.0,72.8,1
270229,2162388511,208.0,196.0,14.0,0,0.684,904.0,72.8,1
270230,2162396511,212.0,200.0,18.0,0,0.758,904.0,72.8,1
270231,2162404511,212.0,203.0,21.0,0,0.755,904.0,72.8,1
270232,2162412511,217.0,206.0,24.0,0,0.783,904.0,72.8,1
270233,2162420511,216.0,209.0,27.0,0,0.807,904.0,72.8,1
270234,2162428510,218.0,211.0,30.0,0,0.828,904.0,72.8,1
270235,2162436511,219.0,213.0,32.0,0,0.786,904.0,72.8,1
270236,2162444512,217.0,214.0,34.0,0,0.797,904.0,72.8,1
270237,2162452511,220.0,215.0,36.0,0,0.807,904.0,72.8,1
270238,2162460511,216.0,216.0,37.0,0,0.737,904.0,72.8,1
270239,2162468512,216.0,216.0,38.0,0,0.741,904.0,72.8,1
270240,2162476512,215.0,215.0,38.0,1,0.664,904.0,72.8,1
270241,2162484512,211.0,214.0,38.0,0,0.663,904.0,72.8,1
270242,2162492511,212.0,214.0,38.0,0,0.661,896.0,72.8,1
270243,2162500511,204.0,211.0,37.0,0,0.733,896.0,72.8,1
270244,2162508512,203.0,209.0,36.0,0,0.727,896.0,72.8,1
270245,2162516510,200.0,207.0,34.0,0,0.791,896.0,72.8,1
270246,2162524511,194.0,204.0,32.0,0,0.778,896.0,72.8,1
270247,2162532511,194.0,202.0,30.0,0,0.763,896.0,72.8,1
270248,2162540511,188.0,198.0,27.0,0,0.794,896.0,72.8,1
270249,2162548512,187.0,196.0,25.0,0,0.721,896.0,72.8,1
270250,2162556511,183.0,192.0,22.0,0,0.748,896.0,72.8,1
270251,2162564511,180.0,189.0,19.0,0,0.719,896.0,72.8,1
270252,2162572511,181.0,187.0,16.0,0,0.687,896.0,72.8,1
270253,2162580511,176.0,185.0,14.0,0,0.611,896.0,72.8,1
270254,2162588511,178.0,183.0,11.0,0,0.633,896.0,72.8,1
270255,2162596511,176.0,181.0,9.0,0,0.557,896.0,72.8,1
270256,2162604511,172.0,179.0,7.0,0,0.536,896.0,72.8,1
270257,2162612511,176.0,178.0,5.0,0,0.515,896.0,72.8,1
270258,2162620511,172.0,177.0,3.0,0,0.495,896.0,72.8,1
270259,2162628511,172.0,176.0,2.0,0,0.41,896.0,72.8,1
270260,2162636511,172.0,175.0,0.0,0,0.466,896.0,72.8,1
270261,2162644511,171.0,174.0,-1.0,0,0.395,896.0,72.8,1
270262,2162652511,175.0,174.0,-2.0,0,0.404,896.0,72.8,1
270263,2162660511,172.0,174.0,-2.0,1,0.329,896.0,72.8,1
270264,2162668510,172.0,173.0,-3.0,0,0.415,896.0,72.8,1
270265,2162676511,174.0,173.0,-3.0,1,0.34,896.0,72.8,1
270266,2162684513,172.0,173.0,-4.0,0,0.426,896.0,72.8,1
270267,2162692511,171.0,173.0,-4.0,1,0.351,896.0,72.8,1
270268,2162700512,169.0,172.0,-5.0,0,0.438,896.0,72.8,1
270269,2162708515,171.0,172.0,-5.0,1,0.362,896.0,72.8,1
270270,2162716511,170.0,171.0,-5.0,0,0.363,896.0,72.8,1
270271,2162724511,168.0,170.0,-6.0,0,0.45,896.0,72.8,1
270272,2162732511,170.0,170.0,-6.0,1,0.375,896.0,72.8,1
270273,2162740512,164.0,169.0,-7.0,0,0.462,896.0,72.8,1
270274,2162748511,164.0,168.0,-8.0,0,0.474,896.0,72.8,1
270275,2162756511,164.0,167.0,-9.0,0,0.485,896.0,72.8,1
270276,2162764511,162.0,166.0,-9.0,1,0.41,896.0,72.8,1
270277,2162772511,164.0,165.0,-10.0,0,0.498,896.0,72.8,1
270278,2162780511,162.0,164.0,-11.0,0,0.509,896.0,72.8,1
270279,2162788511,161.0,164.0,-12.0,0,0.521,896.0,72.8,1
270280,2162796512,161.0,163.0,-12.0,1,0.445,896.0,72.8,1
270281,2162804511,159.0,162.0,-13.0,0,0.533,840.0,72.8,1
270282,2162812512,161.0,162.0,-14.0,0,0.544,840.0,72.8,1
270283,2162820511,158.0,161.0,-14.0,1,0.469,840.0,72.8,1
270284,2162828512,160.0,161.0,-15.0,0,0.556,840.0,72.8,1
270285,2162836511,160.0,160.0,-15.0,1,0.48,840.0,72.8,1
270286,2162844511,157.0,160.0,-15.0,0,0.481,840.0,72.8,1
270287,2162852511,160.0,160.0,-16.0,0,0.567,840.0,72.8,1
270288,2162860511,158.0,159.0,-16.0,1,0.491,840.0,72.8,1
270289,2162868512,159.0,159.0,-16.0,0,0.492,840.0,72.8,1
270290,2162876511,160.0,159.0,-16.0,0,0.492,840.0,72.8,1
270291,2162884512,156.0,159.0,-16.0,0,0.492,840.0,72.8,1
270292,2162892511,160.0,159.0,-17.0,0,0.578,840.0,72.8,1
270293,2162900512,156.0,158.0,-17.0,1,0.502,840.0,72.8,1
270294,2162908511,158.0,158.0,-17.0,0,0.502,840.0,72.8,1
270295,2162916511,159.0,158.0,-17.0,0,0.501,840.0,72.8,1
270296,2162924511,156.0,158.0,-17.0,0,0.501,840.0,72.8,1
270297,2162932512,159.0,158.0,-17.0,0,0.501,840.0,72.8,1
270298,2162940511,156.0,158.0,-17.0,0,0.5,840.0,72.8,1
270299,2162948510,159.0,158.0,-17.0,0,0.5,840.0,72.8,1
270300,2162956511,160.0,158.0,-17.0,0,0.499,840.0,72.8,1
270301,2162964512,158.0,158.0,-17.0,0,0.499,840.0,72.8,1
270302,2162972512,161.0,159.0,-16.0,0,0.565,840.0,72.8,1
270303,2162980511,160.0,159.0,-16.0,1,0.487,840.0,72.8,1
270304,2162988511,163.0,160.0,-15.0,0,0.553,840.0,72.8,1
270305,2162996511,165.0,161.0,-15.0,1,0.476,840.0,72.8,1
270306,2163004512,163.0,162.0,-14.0,0,0.541,840.0,72.8,1
270307,2163012511,167.0,163.0,-13.0,0,0.53,840.0,72.8,1
270308,2163020512,163.0,163.0,-13.0,1,0.452,840.0,72.8,1
270309,2163028511,165.0,163.0,-12.0,0,0.518,840.0,72.8,1
270310,2163036511,166.0,164.0,-11.0,0,0.506,840.0,72.8,1
270311,2163044511,164.0,164.0,-11.0,1,0.429,840.0,72.8,1
270312,2163052511,168.0,165.0,-10.0,0,0.495,840.0,72.8,1
270313,2163060511,165.0,165.0,-10.0,1,0.417,840.0,72.8,1
270314,2163068511,166.0,165.0,-9.0,0,0.483,840.0,72.8,1
270315,2163076511,168.0,166.0,-9.0,1,0.406,840.0,72.8,1
270316,2163084511,165.0,166.0,-9.0,0,0.405,840.0,72.8,1
270317,2163092511,170.0,167.0,-8.0,0,0.471,840.0,72.8,1
270318,2163100511,166.0,167.0,-8.0,1,0.394,840.0,72.8,1
270319,2163108515,170.0,167.0,-7.0,0,0.46,840.0,72.8,1
270320,2163116511,172.0,169.0,-7.0,1,0.383,840.0,72.8,1
270321,2163124511,170.0,169.0,-6.0,0,0.449,840.0,72.8,1
270322,2163132512,174.0,170.0,-5.0,0,0.438,840.0,72.8,1
270323,2163140513,172.0,171.0,-4.0,0,0.428,840.0,72.8,1
270324,2163148511,173.0,171.0,-4.0,1,0.351,840.0,72.8,1
270325,2163156511,177.0,173.0,-3.0,0,0.418,840.0,72.8,1
270326,2163164511,179.0,174.0,-2.0,0,0.408,840.0,72.8,1
270327,2163172511,186.0,177.0,0.0,0,0.464,840.0,72.8,1
270328,2163180511,187.0,179.0,2.0,0,0.481,840.0,72.8,1
270329,2163188511,192.0,182.0,4.0,0,0.501,840.0,72.8,1
270330,2163196510,197.0,186.0,6.0,0,0.522,840.0,72.8,1
270331,2163204511,200.0,189.0,9.0,0,0.609,840.0,72.8,1
270332,2163212511,208.0,194.0,12.0,0,0.641,840.0,72.8,1
270333,2163220511,209.0,198.0,15.0,0,0.674,840.0,72.8,1
270334,2163228511,214.0,202.0,19.0,0,0.748,840.0,72.8,1
270335,2163236512,216.0,205.0,22.0,0,0.745,840.0,72.8,1
270336,2163244511,215.0,207.0,25.0,0,0.773,840.0,72.8,1
270337,2163252511,220.0,211.0,28.0,0,0.798,840.0,72.8,1
270338,2163260511,218.0,212.0,31.0,0,0.821,840.0,72.8,1
270339,2163268511,220.0,214.0,33.0,0,0.78,840.0,72.8,1
270340,2163276510,221.0,216.0,35.0,0,0.793,840.0,72.8,1
270341,2163284510,219.0,217.0,37.0,0,0.804,840.0,72.8,1
270342,2163292511,221.0,218.0,38.0,0,0.734,840.0,72.8,1
270343,2163300513,216.0,217.0,39.0,0,0.739,840.0,72.8,1
270344,2163308511,217.0,217.0,39.0,1,0.662,840.0,72.8,1
270345,2163316512,219.0,218.0,40.0,0,0.745,840.0,72.8,1
270346,2163324511,212.0,216.0,40.0,1,0.667,840.0,72.8,1
270347,2163332511,212.0,215.0,39.0,0,0.741,840.0,72.8,1
270348,2163340511,207.0,213.0,38.0,0,0.737,840.0,72.8,1
270349,2163348510,205.0,211.0,37.0,0,0.732,840.0,72.8,1
270350,2163356511,203.0,209.0,35.0,0,0.798,840.0,72.8,1
270351,2163364511,200.0,207.0,33.0,0,0.787,840.0,72.8,1
270352,2163372511,200.0,205.0,32.0,0,0.705,840.0,72.8,1
270353,2163380511,196.0,203.0,30.0,0,0.768,840.0,72.8,1
270354,2163388511,194.0,201.0,27.0,0,0.8,840.0,72.8,1
270355,2163396512,192.0,199.0,25.0,0,0.729,840.0,72.8,1
270356,2163404511,188.0,196.0,23.0,0,0.712,840.0,72.8,1
270357,2163412511,188.0,194.0,21.0,0,0.693,840.0,72.8,1
270358,2163420511,182.0,191.0,18.0,0,0.718,840.0,72.8,1
270359,2163428511,182.0,189.0,16.0,0,0.642,824.0,72.8,1
270360,2163436511,181.0,187.0,14.0,0,0.62,824.0,72.8,1
270361,2163444511,179.0,185.0,11.0,0,0.642,824.0,72.8,1
270362,2163452512,180.0,184.0,9.0,0,0.565,824.0,72.8,1
270363,2163460512,175.0,182.0,7.0,0,0.542,824.0,72.8,1
270364,2163468511,177.0,181.0,6.0,0,0.456,824.0,72.8,1
270365,2163476515,177.0,180.0,4.0,0,0.51,824.0,72.8,1
270366,2163484511,175.0,179.0,3.0,0,0.425,824.0,72.8,1
270367,2163492510,179.0,179.0,2.0,0,0.415,824.0,72.8,1
270368,2163500512,176.0,178.0,1.0,0,0.405,824.0,72.8,1
270369,2163508512,177.0,178.0,0.0,0,0.395,824.0,72.8,1
270370,2163516511,176.0,177.0,0.0,1,0.316,824.0,72.8,1
270371,2163524511,171.0,176.0,-1.0,0,0.396,824.0,72.8,1
270372,2163532511,173.0,175.0,-2.0,0,0.406,824.0,72.8,1
270373,2163540513,171.0,174.0,-3.0,0,0.416,824.0,72.8,1
270374,2163548511,170.0,173.0,-4.0,0,0.427,824.0,72.8,1
270375,2163556511,171.0,173.0,-5.0,0,0.438,824.0,72.8,1
270376,2163564511,166.0,171.0,-6.0,0,0.448,824.0,72.8,1
270377,2163572514,165.0,170.0,-7.0,0,0.459,824.0,72.8,1
270378,2163580510,163.0,168.0,-8.0,0,0.471,824.0,72.8,1
270379,2163588511,162.0,167.0,-9.0,0,0.482,824.0,72.8,1
270380,2163596511,162.0,165.0,-10.0,0,0.493,824.0,72.8,1
270381,2163604511,159.0,164.0,-12.0,0,0.592,824.0,72.8,1
270382,2163612511,160.0,163.0,-13.0,0,0.527,824.0,72.8,1
270383,2163620511,155.0,161.0,-14.0,0,0.539,824.0,72.8,1
270384,2163628511,156.0,160.0,-15.0,0,0.55,824.0,72.8,1
270385,2163636515,156.0,159.0,-17.0,0,0.648,824.0,72.8,1
270386,2163644511,156.0,158.0,-17.0,1,0.493,824.0,72.8,1
270387,2163652511,159.0,158.0,-18.0,0,0.583,824.0,72.8,1
270388,2163660511,156.0,158.0,-19.0,0,0.594,824.0,72.8,1
270389,2163668512,156.0,157.0,-19.0,1,0.515,824.0,72.8,1
270390,2163676512,156.0,157.0,-20.0,0,0.604,824.0,72.8,1
270391,2163684512,153.0,156.0,-20.0,1,0.525,824.0,72.8,1
270392,2163692511,155.0,156.0,-20.0,0,0.525,824.0,72.8,1
270393,2163700512,152.0,155.0,-21.0,0,0.615,824.0,72.8,1
270394,2163708511,152.0,154.0,-21.0,1,0.536,824.0,72.8,1
270395,2163716511,153.0,154.0,-22.0,0,0.625,824.0,72.8,1
270396,2163724513,154.0,154.0,-22.0,1,0.546,824.0,72.8,1
270397,2163732512,156.0,154.0,-22.0,0,0.546,824.0,72.8,1
270398,2163740512,153.0,154.0,-22.0,0,0.546,825.6,72.8,1
270399,2163748512,156.0,155.0,-22.0,0,0.546,825.6,72.8,1
270400,2163756511,157.0,155.0,-22.0,0,0.547,825.6,72.8,1
270401,2163764511,155.0,155.0,-21.0,0,0.616,825.6,72.8,1
270402,2163772512,159.0,156.0,-21.0,1,0.537,825.6,72.8,1
270403,2163780511,159.0,157.0,-20.0,0,0.606,825.6,72.8,1
270404,2163788512,160.0,158.0,-20.0,1,0.527,825.6,72.8,1
270405,2163796511,161.0,158.0,-19.0,0,0.596,825.6,72.8,1
270406,2163804512,159.0,159.0,-18.0,0,0.586,825.6,72.8,1
270407,2163812511,164.0,160.0,-17.0,0,0.575,825.6,72.8,1
270408,2163820511,161.0,160.0,-17.0,1,0.497,825.6,72.8,1
270409,2163828511,162.0,161.0,-16.0,0,0.565,825.6,72.8,1
270410,2163836512,164.0,161.0,-15.0,0,0.554,825.6,72.8,1
270411,2163844511,161.0,161.0,-15.0,1,0.475,825.6,72.8,1
270412,2163852511,164.0,162.0,-14.0,0,0.543,825.6,72.8,1
270413,2163860511,161.0,162.0,-14.0,1,0.465,825.6,72.8,1
270414,2163868511,163.0,162.0,-13.0,0,0.532,825.6,72.8,1
270415,2163876511,164.0,163.0,-13.0,1,0.454,825.6,72.8,1
270416,2163884512,163.0,163.0,-13.0,0,0.454,825.6,72.8,1
270417,2163892512,167.0,164.0,-12.0,0,0.521,825.6,72.8,1
270418,2163900511,165.0,164.0,-12.0,1,0.443,825.6,72.8,1
270419,2163908511,165.0,164.0,-11.0,0,0.51,825.6,72.8,1
270420,2163916511,165.0,164.0,-11.0,1,0.431,825.6,72.8,1
270421,2163924511,164.0,164.0,-10.0,0,0.499,825.6,72.8,1
270422,2163932511,167.0,165.0,-10.0,1,0.42,825.6,72.8,1
270423,2163940512,165.0,165.0,-10.0,0,0.42,825.6,72.8,1
270424,2163948511,166.0,165.0,-9.0,0,0.488,825.6,72.8,1
270425,2163956511,168.0,166.0,-9.0,1,0.409,825.6,72.8,1
270426,2163964512,165.0,166.0,-9.0,0,0.409,825.6,72.8,1
270427,2163972511,169.0,166.0,-8.0,0,0.477,825.6,72.8,1
270428,2163980510,168.0,167.0,-8.0,1,0.398,825.6,72.8,1
270429,2163988511,173.0,168.0,-7.0,0,0.465,825.6,72.8,1
270430,2163996511,176.0,170.0,-6.0,0,0.454,825.6,72.8,1
270431,2164004511,177.0,172.0,-5.0,0,0.443,825.6,72.8,1
270432,2164012511,186.0,175.0,-3.0,0,0.498,825.6,72.8,1
270433,2164020511,185.0,178.0,-1.0,0,0.477,825.6,72.8,1
270434,2164028511,189.0,180.0,1.0,0,0.475,825.6,72.8,1
270435,2164036515,196.0,184.0,4.0,0,0.56,825.6,72.8,1
270436,2164044512,196.0,187.0,6.0,0,0.526,825.6,72.8,1
270437,2164052511,203.0,191.0,9.0,0,0.614,825.6,72.8,1
270438,2164060511,201.0,193.0,12.0,0,0.647,825.6,72.8,1
270439,2164068511,205.0,196.0,15.0,0,0.68,825.6,72.8,1
270440,2164076511,208.0,199.0,18.0,0,0.712,825.6,72.8,1
270441,2164084511,207.0,201.0,20.0,0,0.677,825.6,72.8,1
270442,2164092513,209.0,203.0,22.0,0,0.697,825.6,72.8,1
270443,2164100511,208.0,204.0,24.0,0,0.715,825.6,72.8,1
270444,2164108511,208.0,205.0,26.0,0,0.732,825.6,72.8,1
270445,2164116511,211.0,207.0,27.0,0,0.665,825.6,72.8,1
270446,2164124511,208.0,207.0,29.0,0,0.756,825.6,72.8,1
270447,2164132512,209.0,207.0,29.0,1,0.603,825.6,72.8,1
270448,2164140510,207.0,207.0,30.0,0,0.688,825.6,72.8,1
270449,2164148512,210.0,208.0,30.0,1,0.609,825.6,72.8,1
270450,2164156511,208.0,208.0,31.0,0,0.695,825.6,72.8,1
270451,2164164514,204.0,207.0,31.0,1,0.616,825.6,72.8,1
270452,2164172512,205.0,207.0,30.0,0,0.687,825.6,72.8,1
270453,2164180511,200.0,205.0,30.0,1,0.609,825.6,72.8,1
270454,2164188512,198.0,203.0,29.0,0,0.68,825.6,72.8,1
270455,2164196510,197.0,202.0,27.0,0,0.741,825.6,72.8,1
270456,2164204511,194.0,200.0,26.0,0,0.657,825.6,72.8,1
270457,2164212511,196.0,199.0,25.0,0,0.649,825.6,72.8,1
270458,2164220511,191.0,197.0,23.0,0,0.707,825.6,72.8,1
270459,2164228511,189.0,195.0,21.0,0,0.688,825.6,72.8,1
270460,2164236511,187.0,193.0,20.0,0,0.603,825.6,72.8,1
270461,2164244511,182.0,190.0,18.0,0,0.659,825.6,72.8,1
270462,2164252511,184.0,189.0,16.0,0,0.637,825.6,72.8,1
270463,2164260511,180.0,187.0,14.0,0,0.616,825.6,72.8,1
270464,2164268511,180.0,185.0,12.0,0,0.594,825.6,72.8,1
270465,2164276511,180.0,184.0,10.0,0,0.571,825.6,72.8,1
270466,2164284511,175.0,182.0,8.0,0,0.549,825.6,72.8,1
270467,2164292510,177.0,181.0,6.0,0,0.527,825.6,72.8,1
270468,2164300511,172.0,178.0,5.0,0,0.441,825.6,72.8,1
270469,2164308511,172.0,177.0,3.0,0,0.496,825.6,72.8,1
270470,2164316511,172.0,176.0,1.0,0,0.476,825.6,72.8,1
270471,2164324511,167.0,174.0,0.0,0,0.39,825.6,72.8,1
270472,2164332511,172.0,173.0,-2.0,0,0.486,825.6,72.8,1
270473,2164340511,169.0,172.0,-3.0,0,0.421,825.6,72.8,1
270474,2164348511,170.0,172.0,-4.0,0,0.431,825.6,72.8,1
270475,2164356511,171.0,172.0,-5.0,0,0.442,825.6,72.8,1
270476,2164364511,167.0,170.0,-6.0,0,0.453,828.8,72.8,1
270477,2164372511,169.0,170.0,-6.0,1,0.374,828.8,72.8,1
270478,2164380511,166.0,169.0,-7.0,0,0.463,828.8,72.8,1
270479,2164388511,167.0,169.0,-8.0,0,0.475,828.8,72.8,1
270480,2164396512,166.0,168.0,-8.0,1,0.395,828.8,72.8,1
270481,2164404511,164.0,167.0,-9.0,0,0.486,828.8,72.8,1
270482,2164412512,167.0,167.0,-9.0,1,0.406,840.8,71.5,1
270483,2164420511,164.0,166.0,-10.0,0,0.497,840.8,71.5,1
270484,2164428514,163.0,165.0,-11.0,0,0.508,840.8,71.5,1
270485,2164436512,162.0,165.0,-11.0,1,0.429,840.8,71.5,1
270486,2164444511,159.0,163.0,-12.0,0,0.52,840.8,71.5,1
270487,2164452511,164.0,163.0,-13.0,0,0.531,840.8,71.5,1
270488,2164460512,158.0,162.0,-13.0,1,0.451,840.8,71.5,1
270489,2164468512,157.0,161.0,-14.0,0,0.542,840.8,71.5,1
270490,2164476511,157.0,160.0,-15.0,0,0.554,840.8,71.5,1
270491,2164484511,156.0,159.0,-16.0,0,0.565,840.8,71.5,1
270492,2164492512,158.0,159.0,-16.0,1,0.485,840.8,71.5,1
270493,2164500511,154.0,158.0,-17.0,0,0.575,840.8,71.5,1
270494,2164508512,155.0,157.0,-18.0,0,0.586,840.8,71.5,1
270495,2164516512,156.0,157.0,-18.0,1,0.506,840.8,71.5,1
270496,2164524511,154.0,156.0,-19.0,0,0.596,840.8,71.5,1
270497,2164532512,157.0,156.0,-19.0,1,0.516,840.8,71.5,1
270498,2164540511,156.0,156.0,-19.0,0,0.516,840.8,71.5,1
270499,2164548512,156.0,156.0,-19.0,0,0.516,840.8,71.5,1
270500,2164556511,158.0,157.0,-19.0,0,0.515,840.8,71.5,1
270501,2164564511,156.0,156.0,-19.0,0,0.515,840.8,71.5,1
270502,2164572511,160.0,157.0,-19.0,0,0.515,840.8,71.5,1
270503,2164580512,158.0,157.0,-19.0,0,0.514,840.8,71.5,1
270504,2164588511,160.0,158.0,-18.0,0,0.583,840.8,71.5,1
270505,2164596511,161.0,159.0,-18.0,1,0.503,840.8,71.5,1
270506,2164604511,157.0,158.0,-17.0,0,0.572,840.8,71.5,1
270507,2164612511,160.0,159.0,-17.0,1,0.492,840.8,71.5,1
270508,2164620512,157.0,158.0,-17.0,0,0.492,840.8,71.5,1
270509,2164628512,159.0,158.0,-17.0,0,0.492,840.8,71.5,1
270510,2164636512,158.0,158.0,-16.0,0,0.56,840.8,71.5,1
270511,2164644511,156.0,158.0,-17.0,1,0.572,840.8,71.5,1
270512,2164652512,158.0,158.0,-16.0,1,0.56,840.8,71.5,1
270513,2164660511,154.0,157.0,-17.0,1,0.572,840.8,71.5,1
270514,2164668512,156.0,157.0,-17.0,1,0.492,840.8,71.5,1
270515,2164676512,156.0,157.0,-17.0,0,0.492,839.2,71.5,1
270516,2164684511,156.0,156.0,-17.0,0,0.492,839.2,71.5,1
270517,2164692512,159.0,157.0,-17.0,0,0.492,839.2,71.5,1
270518,2164700511,156.0,157.0,-17.0,0,0.492,839.2,71.5,1
270519,2164708511,158.0,157.0,-17.0,0,0.492,839.2,71.5,1
270520,2164716511,158.0,157.0,-17.0,0,0.492,839.2,71.5,1
270521,2164724511,157.0,157.0,-16.0,0,0.56,839.2,71.5,1
270522,2164732511,161.0,158.0,-16.0,1,0.481,839.2,71.5,1
270523,2164740511,160.0,159.0,-16.0,0,0.481,839.2,71.5,1
270524,2164748512,161.0,159.0,-15.0,0,0.549,839.2,71.5,1
270525,2164756511,166.0,161.0,-14.0,0,0.538,839.2,71.5,1
270526,2164764511,165.0,162.0,-13.0,0,0.527,839.2,71.5,1
270527,2164772515,170.0,164.0,-12.0,0,0.515,839.2,71.5,1
270528,2164780511,170.0,165.0,-11.0,0,0.504,839.2,71.5,1
270529,2164788512,175.0,168.0,-9.0,0,0.557,839.2,71.5,1
270530,2164796510,177.0,170.0,-7.0,0,0.534,839.2,71.5,1
270531,2164804511,179.0,172.0,-5.0,0,0.512,839.2,71.5,1
270532,2164812511,184.0,175.0,-3.0,0,0.491,839.2,71.5,1
270533,2164820511,181.0,176.0,-1.0,0,0.47,839.2,71.5,1
270534,2164828511,188.0,179.0,1.0,0,0.48,839.2,71.5,1
270535,2164836512,193.0,183.0,3.0,0,0.5,839.2,71.5,1
270536,2164844511,196.0,186.0,6.0,0,0.586,839.2,71.5,1
270537,2164852511,202.0,190.0,9.0,0,0.62,839.2,71.5,1
270538,2164860510,202.0,193.0,12.0,0,0.653,839.2,71.5,1
270539,2164868514,209.0,197.0,15.0,0,0.686,839.2,71.5,1
270540,2164876511,209.0,200.0,18.0,0,0.718,839.2,71.5,1
270541,2164884513,210.0,202.0,21.0,0,0.748,839.2,71.5,1
270542,2164892514,214.0,205.0,24.0,0,0.775,839.2,71.5,1
270543,2164900511,212.0,207.0,27.0,0,0.799,839.2,71.5,1
270544,2164908511,214.0,208.0,29.0,0,0.759,839.2,71.5,1
270545,2164916511,217.0,211.0,31.0,0,0.772,839.2,71.5,1
270546,2164924511,213.0,211.0,32.0,0,0.704,839.2,71.5,1
270547,2164932511,214.0,212.0,34.0,0,0.79,839.2,71.5,1
270548,2164940511,212.0,212.0,34.0,1,0.638,839.2,71.5,1
270549,2164948512,211.0,212.0,35.0,0,0.72,839.2,71.5,1
270550,2164956511,208.0,211.0,35.0,1,0.641,839.2,71.5,1
270551,2164964511,209.0,210.0,35.0,0,0.64,839.2,71.5,1
270552,2164972511,209.0,210.0,34.0,0,0.712,839.2,71.5,1
270553,2164980513,204.0,209.0,34.0,1,0.632,839.2,71.5,1
270554,2164988511,206.0,208.0,33.0,0,0.706,839.2,71.5,1
270555,2164996511,203.0,207.0,32.0,0,0.7,839.2,71.5,1
270556,2165004513,199.0,205.0,31.0,0,0.693,839.2,71.5,1
270557,2165012511,197.0,203.0,29.0,0,0.756,839.2,71.5,1
270558,2165020511,193.0,201.0,28.0,0,0.671,839.2,71.5,1
270559,2165028511,193.0,199.0,26.0,0,0.732,839.2,71.5,1
270560,2165036511,191.0,197.0,24.0,0,0.715,839.2,71.5,1
270561,2165044511,185.0,194.0,22.0,0,0.697,839.2,71.5,1
270562,2165052511,186.0,192.0,20.0,0,0.677,839.2,71.5,1
270563,2165060510,181.0,189.0,17.0,0,0.701,839.2,71.5,1
270564,2165068511,180.0,187.0,15.0,0,0.625,839.2,71.5,1
270565,2165076511,180.0,185.0,13.0,0,0.603,839.2,71.5,1
270566,2165084511,174.0,183.0,10.0,0,0.624,839.2,71.5,1
270567,2165092510,179.0,182.0,8.0,0,0.547,839.2,71.5,1
270568,2165100511,176.0,180.0,7.0,0,0.461,839.2,71.5,1
270569,2165108512,173.0,179.0,5.0,0,0.516,839.2,71.5,1
270570,2165116512,173.0,177.0,3.0,0,0.495,839.2,71.5,1
270571,2165124511,172.0,176.0,2.0,0,0.409,839.2,71.5,1
270572,2165132511,175.0,176.0,1.0,0,0.4,839.2,71.5,1
270573,2165140511,175.0,176.0,0.0,0,0.395,839.2,71.5,1
270574,2165148511,176.0,176.0,-1.0,0,0.405,839.2,71.5,1
270575,2165156511,176.0,176.0,-1.0,1,0.324,839.2,71.5,1
270576,2165164510,172.0,175.0,-2.0,0,0.416,839.2,71.5,1
270577,2165172511,176.0,175.0,-2.0,1,0.333,839.2,71.5,1
270578,2165180513,172.0,174.0,-3.0,0,0.426,839.2,71.5,1
270579,2165188510,174.0,174.0,-3.0,1,0.344,839.2,71.5,1
270580,2165196512,174.0,174.0,-3.0,0,0.343,839.2,71.5,1
270581,2165204511,169.0,173.0,-4.0,0,0.438,839.2,71.5,1
270582,2165212512,172.0,173.0,-4.0,1,0.354,839.2,71.5,1
270583,2165220510,168.0,172.0,-5.0,0,0.449,839.2,71.5,1
270584,2165228511,169.0,171.0,-5.0,1,0.365,839.2,71.5,1
270585,2165236511,170.0,171.0,-6.0,0,0.46,839.2,71.5,1
270586,2165244511,165.0,169.0,-6.0,1,0.376,839.2,71.5,1
270587,2165252511,167.0,169.0,-7.0,0,0.471,839.2,71.5,1
270588,2165260511,161.0,167.0,-8.0,0,0.483,839.2,71.5,1
270589,2165268511,164.0,166.0,-9.0,0,0.494,839.2,71.5,1
270590,2165276512,161.0,165.0,-10.0,0,0.506,839.2,71.5,1
270591,2165284511,158.0,163.0,-11.0,0,0.517,839.2,71.5,1
270592,2165292511,159.0,162.0,-12.0,0,0.529,839.2,71.5,1
270593,2165300512,157.0,161.0,-13.0,0,0.54,832.8,71.5,1
270594,2165308511,156.0,160.0,-14.0,0,0.552,832.8,71.5,1
270595,2165316510,158.0,159.0,-15.0,0,0.563,832.8,71.5,1
270596,2165324511,153.0,158.0,-16.0,0,0.574,832.8,71.5,1
270597,2165332512,156.0,157.0,-17.0,0,0.585,832.8,71.5,1
270598,2165340512,155.0,157.0,-18.0,0,0.595,832.8,71.5,1
270599,2165348512,155.0,156.0,-18.0,1,0.512,832.8,71.5,1
270600,2165356512,156.0,156.0,-19.0,0,0.606,832.8,71.5,1
270601,2165364512,155.0,156.0,-19.0,1,0.522,832.8,71.5,1
270602,2165372512,156.0,156.0,-19.0,0,0.522,832.8,71.5,1
270603,2165380511,155.0,156.0,-20.0,0,0.615,832.8,71.5,1
270604,2165388511,155.0,156.0,-20.0,1,0.532,832.8,71.5,1
270605,2165396511,156.0,156.0,-20.0,0,0.531,832.8,71.5,1
270606,2165404511,153.0,155.0,-20.0,0,0.531,832.8,71.5,1
270607,2165412512,157.0,155.0,-20.0,0,0.531,832.8,71.5,1
270608,2165420512,156.0,156.0,-20.0,0,0.53,832.8,71.5,1
270609,2165428510,157.0,156.0,-20.0,0,0.53,832.8,71.5,1
270610,2165436511,157.0,156.0,-19.0,0,0.602,832.8,71.5,1
270611,2165444512,156.0,156.0,-19.0,1,0.519,840.0,70.8,1
270612,2165452511,158.0,157.0,-19.0,0,0.519,840.0,70.8,1
270613,2165460512,155.0,156.0,-19.0,0,0.519,840.0,70.8,1
270614,2165468512,154.0,156.0,-19.0,0,0.519,840.0,70.8,1
270615,2165476511,159.0,156.0,-18.0,0,0.591,840.0,70.8,1
270616,2165484510,154.0,156.0,-18.0,1,0.508,840.0,70.8,1
270617,2165492511,156.0,156.0,-18.0,0,0.508,840.0,70.8,1
270618,2165500512,152.0,155.0,-18.0,0,0.507,840.0,70.8,1
270619,2165508511,154.0,155.0,-19.0,0,0.601,840.0,70.8,1
270620,2165516510,156.0,155.0,-19.0,1,0.518,840.0,70.8,1
270621,2165524511,153.0,155.0,-19.0,0,0.518,840.0,70.8,1
270622,2165532511,157.0,155.0,-19.0,0,0.518,840.0,70.8,1
270623,2165540511,155.0,155.0,-18.0,0,0.59,840.0,70.8,1
270624,2165548511,156.0,155.0,-18.0,1,0.507,840.0,70.8,1
270625,2165556512,156.0,155.0,-18.0,0,0.506,840.0,70.8,1
270626,2165564511,153.0,155.0,-18.0,0,0.506,840.0,70.8,1
270627,2165572511,158.0,156.0,-18.0,0,0.506,840.0,70.8,1
270628,2165580510,160.0,157.0,-17.0,0,0.578,840.0,70.8,1
270629,2165588512,164.0,158.0,-16.0,0,0.566,840.0,70.8,1
270630,2165596511,169.0,161.0,-15.0,0,0.555,840.0,70.8,1
270631,2165604511,171.0,163.0,-13.0,0,0.61,840.0,70.8,1
270632,2165612512,180.0,167.0,-11.0,0,0.587,840.0,70.8,1
270633,2165620511,180.0,170.0,-8.0,0,0.606,840.0,70.8,1
270634,2165628512,188.0,175.0,-5.0,0,0.571,840.0,70.8,1
270635,2165636511,195.0,180.0,-2.0,0,0.539,840.0,70.8,1
270636,2165644513,198.0,184.0,2.0,0,0.58,840.0,70.8,1
270637,2165652511,208.0,190.0,6.0,0,0.622,840.0,70.8,1
270638,2165660510,210.0,195.0,11.0,0,0.694,840.0,70.8,1
270639,2165668510,217.0,200.0,16.0,0,0.749,840.0,70.8,1
270640,2165676511,223.0,206.0,20.0,0,0.773,840.0,70.8,1
270641,2165684511,222.0,210.0,25.0,0,0.835,840.0,70.8,1
270642,2165692514,226.0,214.0,29.0,0,0.847,840.0,70.8,1
270643,2165700515,227.0,217.0,33.0,0,0.871,840.0,70.8,1
270644,2165708512,227.0,219.0,36.0,0,0.852,840.0,70.8,1
270645,2165716511,229.0,222.0,40.0,0,0.902,840.0,70.8,1
270646,2165724511,225.0,222.0,42.0,0,0.819,840.0,70.8,1
270647,2165732511,231.0,225.0,44.0,0,0.824,840.0,70.8,1
270648,2165740511,226.0,225.0,45.0,0,0.755,840.0,70.8,1
270649,2165748511,225.0,225.0,46.0,0,0.756,840.0,70.8,1
270650,2165756511,224.0,225.0,47.0,0,0.758,840.0,70.8,1
270651,2165764511,220.0,224.0,47.0,1,0.684,840.0,70.8,1
270652,2165772512,220.0,223.0,47.0,0,0.683,840.0,70.8,1
270653,2165780511,212.0,220.0,46.0,0,0.751,840.0,70.8,1
270654,2165788511,216.0,219.0,45.0,0,0.746,840.0,70.8,1
270655,2165796511,209.0,217.0,43.0,0,0.81,840.0,70.8,1
270656,2165804511,207.0,214.0,41.0,0,0.8,840.0,70.8,1
270657,2165812511,206.0,212.0,39.0,0,0.79,840.0,70.8,1
270658,2165820511,201.0,210.0,37.0,0,0.779,840.0,70.8,1
270659,2165828511,199.0,207.0,34.0,0,0.815,840.0,70.8,1
270660,2165836511,199.0,205.0,32.0,0,0.746,840.0,70.8,1
270661,2165844511,193.0,202.0,30.0,0,0.731,840.0,70.8,1
270662,2165852510,194.0,200.0,27.0,0,0.762,840.0,70.8,1
270663,2165860511,188.0,197.0,25.0,0,0.69,840.0,70.8,1
270664,2165868511,189.0,195.0,22.0,0,0.718,840.0,70.8,1
270665,2165876511,188.0,193.0,20.0,0,0.645,840.0,70.8,1
270666,2165884511,183.0,191.0,17.0,0,0.67,840.0,70.8,1
270667,2165892512,184.0,189.0,15.0,0,0.595,840.0,70.8,1
270668,2165900512,179.0,187.0,13.0,0,0.575,840.0,70.8,1
270669,2165908512,179.0,185.0,11.0,0,0.555,840.0,70.8,1
270670,2165916511,176.0,183.0,9.0,0,0.535,840.0,70.8,1
270671,2165924511,173.0,180.0,6.0,0,0.56,840.0,70.8,1
270672,2165932511,176.0,179.0,4.0,0,0.486,840.0,70.8,1
270673,2165940512,169.0,177.0,2.0,0,0.467,840.0,70.8,1
270674,2165948511,169.0,175.0,0.0,0,0.462,840.0,70.8,1
270675,2165956511,166.0,173.0,-2.0,0,0.481,840.0,70.8,1
270676,2165964510,164.0,171.0,-4.0,0,0.5,840.0,70.8,1
270677,2165972510,167.0,170.0,-5.0,0,0.438,840.0,70.8,1
270678,2165980511,163.0,168.0,-7.0,0,0.531,840.0,70.8,1
270679,2165988511,162.0,167.0,-9.0,0,0.552,840.0,70.8,1
270680,2165996511,162.0,166.0,-10.0,0,0.49,840.0,70.8,1
270681,2166004511,159.0,164.0,-11.0,0,0.501,840.0,70.8,1
270682,2166012511,162.0,163.0,-13.0,0,0.595,840.0,70.8,1
270683,2166020511,159.0,162.0,-14.0,0,0.533,840.0,70.8,1
270684,2166028512,160.0,162.0,-15.0,0,0.543,840.0,70.8,1
270685,2166036511,160.0,161.0,-15.0,1,0.468,840.0,70.8,1
270686,2166044511,158.0,161.0,-16.0,0,0.552,840.0,70.8,1
270687,2166052511,160.0,160.0,-17.0,0,0.562,840.0,70.8,1
270688,2166060511,157.0,160.0,-17.0,1,0.487,840.0,70.8,1
270689,2166068512,159.0,159.0,-18.0,0,0.571,840.0,70.8,1
270690,2166076511,157.0,159.0,-18.0,1,0.496,840.0,70.8,1
270691,2166084512,156.0,158.0,-19.0,0,0.58,840.0,70.8,1
270692,2166092511,156.0,158.0,-19.0,1,0.505,840.0,70.8,1
270693,2166100511,155.0,157.0,-19.0,0,0.504,840.0,70.8,1
270694,2166108511,157.0,157.0,-20.0,0,0.587,840.0,70.8,1
270695,2166116512,155.0,157.0,-20.0,1,0.513,840.0,70.8,1
270696,2166124512,151.0,155.0,-21.0,0,0.596,840.0,70.8,1
270697,2166132512,155.0,155.0,-21.0,1,0.521,840.0,70.8,1
270698,2166140511,149.0,154.0,-22.0,0,0.604,840.0,70.8,1
270699,2166148511,151.0,153.0,-22.0,1,0.529,840.0,70.8,1
270700,2166156514,153.0,153.0,-23.0,0,0.612,840.0,70.8,1
270701,2166164511,148.0,152.0,-23.0,1,0.538,840.0,70.8,1
270702,2166172513,151.0,152.0,-24.0,0,0.62,840.0,70.8,1
270703,2166180510,147.0,150.0,-24.0,1,0.546,840.0,70.8,1
270704,2166188513,148.0,150.0,-25.0,0,0.628,840.0,70.8,1
270705,2166196512,149.0,150.0,-25.0,1,0.553,840.0,70.8,1
270706,2166204511,144.0,148.0,-26.0,0,0.636,840.0,70.8,1
270707,2166212511,146.0,148.0,-26.0,1,0.561,840.0,70.8,1
270708,2166220511,143.0,147.0,-27.0,0,0.644,840.0,70.8,1
270709,2166228511,145.0,146.0,-27.0,1,0.569,840.0,70.8,1
270710,2166236510,147.0,146.0,-28.0,0,0.651,840.0,70.8,1
270711,2166244511,146.0,146.0,-28.0,1,0.576,840.0,70.8,1
270712,2166252512,151.0,147.0,-28.0,0,0.575,840.0,70.8,1
270713,2166260511,148.0,148.0,-27.0,0,0.641,840.0,70.8,1
270714,2166268512,153.0,149.0,-27.0,1,0.566,840.0,70.8,1
270715,2166276513,154.0,150.0,-26.0,0,0.632,840.0,70.8,1
270716,2166284515,153.0,151.0,-25.0,0,0.623,840.0,70.8,1
270717,2166292512,156.0,152.0,-24.0,0,0.613,840.0,70.8,1
270718,2166300511,155.0,153.0,-23.0,0,0.604,840.0,70.8,1
270719,2166308511,157.0,154.0,-22.0,0,0.594,840.0,70.8,1
270720,2166316511,159.0,155.0,-21.0,0,0.584,840.0,70.8,1
270721,2166324511,157.0,156.0,-20.0,0,0.574,840.0,70.8,1
270722,2166332512,161.0,157.0,-19.0,0,0.564,840.0,70.8,1
270723,2166340512,160.0,158.0,-18.0,0,0.554,840.0,70.8,1
270724,2166348511,162.0,159.0,-17.0,0,0.544,840.0,70.8,1
270725,2166356512,164.0,160.0,-16.0,0,0.534,840.0,70.8,1
270726,2166364512,163.0,161.0,-15.0,0,0.523,840.0,70.8,1
270727,2166372512,165.0,162.0,-13.0,0,0.575,840.0,70.8,1
270728,2166380511,165.0,163.0,-12.0,0,0.492,840.0,70.8,1
270729,2166388512,168.0,164.0,-11.0,0,0.482,840.0,70.8,1
270730,2166396511,168.0,165.0,-10.0,0,0.471,840.0,70.8,1
270731,2166404511,167.0,165.0,-9.0,0,0.461,840.0,70.8,1
270732,2166412512,173.0,167.0,-8.0,0,0.451,840.0,70.8,1
270733,2166420512,173.0,169.0,-7.0,0,0.441,840.0,70.8,1
270734,2166428511,177.0,171.0,-5.0,0,0.494,840.0,70.8,1
270735,2166436511,182.0,173.0,-3.0,0,0.475,840.0,70.8,1
270736,2166444511,182.0,175.0,-2.0,0,0.393,840.0,70.8,1
270737,2166452512,191.0,179.0,1.0,0,0.531,840.0,70.8,1
270738,2166460511,196.0,183.0,4.0,0,0.56,840.0,70.8,1
270739,2166468511,202.0,188.0,7.0,0,0.589,840.0,70.8,1
270740,2166476512,206.0,192.0,11.0,0,0.664,840.0,70.8,1
270741,2166484511,209.0,196.0,14.0,0,0.66,840.0,70.8,1
270742,2166492511,216.0,201.0,18.0,0,0.734,840.0,70.8,1
270743,2166500510,217.0,205.0,22.0,0,0.771,840.0,70.8,1
270744,2166508511,220.0,209.0,26.0,0,0.803,840.0,70.8,1
270745,2166516511,224.0,212.0,30.0,0,0.831,840.0,70.8,1
270746,2166524511,221.0,214.0,33.0,0,0.814,840.0,70.8,1
270747,2166532511,226.0,217.0,36.0,0,0.829,840.0,70.8,1
270748,2166540511,224.0,219.0,38.0,0,0.783,840.0,70.8,1
270749,2166548511,224.0,220.0,40.0,0,0.791,840.0,70.8,1
270750,2166556511,225.0,221.0,42.0,0,0.798,840.0,70.8,1
270751,2166564512,223.0,222.0,43.0,0,0.732,840.0,70.8,1
270752,2166572515,223.0,222.0,44.0,0,0.734,840.0,70.8,1
270753,2166580511,219.0,221.0,44.0,1,0.665,840.0,70.8,1
270754,2166588512,218.0,220.0,44.0,0,0.663,840.0,70.8,1
270755,2166596513,218.0,220.0,44.0,0,0.661,840.0,70.8,1
270756,2166604510,212.0,218.0,43.0,0,0.724,840.0,70.8,1
270757,2166612512,212.0,217.0,42.0,0,0.718,840.0,70.8,1
270758,2166620511,208.0,214.0,41.0,0,0.712,840.0,70.8,1
270759,2166628511,205.0,212.0,39.0,0,0.769,840.0,70.8,1
270760,2166636511,204.0,210.0,37.0,0,0.757,840.0,70.8,1
270761,2166644511,199.0,207.0,35.0,0,0.744,840.0,70.8,1
270762,2166652511,199.0,205.0,33.0,0,0.729,840.0,70.8,1
270763,2166660511,191.0,202.0,30.0,0,0.761,840.0,70.8,1
270764,2166668511,190.0,199.0,27.0,0,0.737,840.0,70.8,1
270765,2166676512,189.0,197.0,25.0,0,0.665,840.0,70.8,1
270766,2166684511,183.0,193.0,22.0,0,0.693,840.0,70.8,1
270767,2166692511,184.0,191.0,19.0,0,0.665,840.0,70.8,1
270768,2166700511,180.0,188.0,16.0,0,0.636,840.0,70.8,1
270769,2166708511,177.0,186.0,14.0,0,0.563,840.0,70.8,1
270770,2166716511,177.0,184.0,11.0,0,0.588,840.0,70.8,1
270771,2166724511,172.0,181.0,8.0,0,0.56,840.0,70.8,1
270772,2166732511,175.0,179.0,6.0,0,0.488,840.0,70.8,1
270773,2166740511,168.0,177.0,4.0,0,0.47,840.0,70.8,1
270774,2166748515,165.0,174.0,1.0,0,0.501,840.0,70.8,1
270775,2166756511,167.0,172.0,-1.0,0,0.463,840.0,70.8,1
270776,2166764511,163.0,170.0,-3.0,0,0.48,840.0,70.8,1
270777,2166772511,164.0,168.0,-5.0,0,0.498,840.0,70.8,1
270778,2166780511,160.0,166.0,-7.0,0,0.516,840.0,70.8,1
270779,2166788511,159.0,165.0,-9.0,0,0.534,840.0,70.8,1
270780,2166796511,159.0,163.0,-11.0,0,0.553,840.0,70.8,1
270781,2166804511,156.0,162.0,-13.0,0,0.572,840.0,70.8,1
270782,2166812510,157.0,160.0,-14.0,0,0.514,840.0,70.8,1
270783,2166820511,155.0,159.0,-16.0,0,0.6,840.0,70.8,1
270784,2166828512,156.0,158.0,-17.0,0,0.542,840.0,70.8,1
270785,2166836512,156.0,158.0,-18.0,0,0.551,840.0,70.8,1
270786,2166844512,152.0,156.0,-19.0,0,0.559,840.0,70.8,1
270787,2166852511,154.0,156.0,-20.0,0,0.568,840.0,70.8,1
270788,2166860511,148.0,154.0,-21.0,0,0.576,840.0,70.8,1
270789,2166868513,150.0,153.0,-22.0,0,0.584,840.0,70.8,1
270790,2166876511,151.0,152.0,-23.0,0,0.592,840.0,70.8,1
270791,2166884511,148.0,151.0,-23.0,1,0.524,840.0,70.8,1
270792,2166892511,152.0,152.0,-24.0,0,0.599,840.0,70.8,1
270793,2166900512,148.0,151.0,-24.0,1,0.531,840.0,70.8,1
270794,2166908511,147.0,150.0,-25.0,0,0.606,840.0,70.8,1
270795,2166916512,148.0,149.0,-26.0,0,0.614,840.0,70.8,1
270796,2166924511,144.0,148.0,-26.0,1,0.545,840.0,70.8,1
270797,2166932512,148.0,148.0,-27.0,0,0.62,840.0,70.8,1
270798,2166940511,146.0,148.0,-27.0,1,0.552,840.0,70.8,1
270799,2166948512,145.0,147.0,-28.0,0,0.626,840.0,70.8,1
270800,2166956513,145.0,146.0,-28.0,1,0.558,840.0,70.8,1
270801,2166964511,141.0,145.0,-28.0,0,0.557,840.0,70.8,1
270802,2166972511,144.0,145.0,-29.0,0,0.631,840.0,70.8,1
270803,2166980511,141.0,144.0,-29.0,1,0.563,840.0,70.8,1
270804,2166988512,142.0,143.0,-30.0,0,0.637,840.0,70.8,1
270805,2166996511,144.0,144.0,-30.0,1,0.568,840.0,70.8,1
270806,2167004512,141.0,143.0,-30.0,0,0.568,840.0,70.8,1
270807,2167012512,145.0,143.0,-30.0,0,0.567,840.0,70.8,1
270808,2167020512,142.0,143.0,-30.0,0,0.566,840.0,70.8,1
270809,2167028512,145.0,144.0,-30.0,0,0.565,840.0,70.8,1
270810,2167036512,144.0,144.0,-30.0,0,0.564,840.0,70.8,1
270811,2167044511,143.0,144.0,-30.0,0,0.563,840.0,70.8,1
270812,2167052511,147.0,144.0,-30.0,0,0.562,840.0,70.8,1
270813,2167060512,146.0,145.0,-29.0,0,0.622,840.0,70.8,1
270814,2167068512,148.0,146.0,-28.0,0,0.613,840.0,70.8,1
270815,2167076513,151.0,147.0,-28.0,1,0.545,840.0,70.8,1
270816,2167084511,148.0,147.0,-27.0,0,0.604,840.0,70.8,1
270817,2167092512,153.0,149.0,-26.0,0,0.595,840.0,70.8,1
270818,2167100511,155.0,150.0,-25.0,0,0.586,840.0,70.8,1
270819,2167108510,156.0,152.0,-23.0,0,0.636,840.0,70.8,1
270820,2167116511,158.0,153.0,-22.0,0,0.559,840.0,70.8,1
270821,2167124512,156.0,154.0,-21.0,0,0.55,840.0,70.8,1
270822,2167132512,160.0,155.0,-19.0,0,0.599,840.0,70.8,1
270823,2167140510,159.0,156.0,-18.0,0,0.522,840.0,70.8,1
270824,2167148513,159.0,157.0,-17.0,0,0.513,840.0,70.8,1
270825,2167156512,163.0,158.0,-16.0,0,0.504,840.0,70.8,1
270826,2167164512,160.0,159.0,-15.0,0,0.494,840.0,70.8,1
270827,2167172511,164.0,160.0,-14.0,0,0.485,841.6,70.8,1
270828,2167180512,161.0,160.0,-13.0,0,0.476,841.6,70.8,1
270829,2167188512,164.0,161.0,-12.0,0,0.467,841.6,70.8,1
270830,2167196512,164.0,162.0,-11.0,0,0.458,841.6,70.8,1
270831,2167204511,160.0,161.0,-11.0,1,0.391,841.6,70.8,1
270832,2167212512,164.0,162.0,-10.0,0,0.449,841.6,70.8,1
270833,2167220510,163.0,162.0,-10.0,1,0.382,841.6,70.8,1
270834,2167228511,165.0,163.0,-9.0,0,0.44,841.6,70.8,1
270835,2167236510,167.0,164.0,-8.0,0,0.432,841.6,70.8,1
270836,2167244515,165.0,164.0,-8.0,1,0.365,841.6,70.8,1
270837,2167252511,171.0,166.0,-7.0,0,0.423,841.6,70.8,1
270838,2167260511,168.0,166.0,-6.0,0,0.415,841.6,70.8,1
270839,2167268511,170.0,167.0,-5.0,0,0.407,841.6,70.8,1
270840,2167276511,172.0,168.0,-4.0,0,0.398,841.6,70.8,1
270841,2167284511,172.0,169.0,-3.0,0,0.391,841.6,70.8,1
270842,2167292512,177.0,171.0,-2.0,0,0.383,841.6,70.8,1
270843,2167300511,178.0,173.0,-1.0,0,0.382,841.6,70.8,1
270844,2167308511,183.0,175.0,1.0,0,0.465,841.6,70.8,1
270845,2167316512,188.0,178.0,3.0,0,0.482,841.6,70.8,1
270846,2167324511,190.0,181.0,5.0,0,0.499,841.6,70.8,1
270847,2167332512,199.0,186.0,8.0,0,0.58,841.6,70.8,1
270848,2167340511,200.0,189.0,11.0,0,0.607,841.6,70.8,1
270849,2167348512,207.0,193.0,14.0,0,0.634,841.6,70.8,1
270850,2167356511,212.0,198.0,18.0,0,0.706,841.6,70.8,1
270851,2167364512,214.0,202.0,21.0,0,0.695,841.6,70.8,1
270852,2167372511,219.0,206.0,25.0,0,0.764,841.6,70.8,1
270853,2167380511,218.0,209.0,29.0,0,0.793,841.6,70.8,1
270854,2167388511,221.0,212.0,32.0,0,0.775,841.6,70.8,1
270855,2167396512,224.0,215.0,35.0,0,0.793,841.6,70.8,1
270856,2167404511,224.0,217.0,38.0,0,0.808,841.6,70.8,1
270857,2167412511,228.0,220.0,40.0,0,0.763,841.6,70.8,1
270858,2167420510,224.0,221.0,42.0,0,0.772,841.6,70.8,1
270859,2167428511,224.0,222.0,44.0,0,0.78,841.6,70.8,1
270860,2167436512,224.0,222.0,45.0,0,0.717,841.6,70.8,1
270861,2167444512,224.0,223.0,46.0,0,0.72,841.6,70.8,1
270862,2167452511,224.0,223.0,47.0,0,0.723,841.6,70.8,1
270863,2167460511,221.0,222.0,47.0,1,0.657,841.6,70.8,1
270864,2167468511,220.0,222.0,47.0,0,0.656,841.6,70.8,1
270865,2167476512,219.0,221.0,47.0,0,0.655,841.6,70.8,1
270866,2167484511,213.0,219.0,46.0,0,0.716,840.0,70.8,1
270867,2167492511,212.0,217.0,44.0,0,0.773,840.0,70.8,1
270868,2167500512,208.0,215.0,43.0,0,0.702,840.0,70.8,1
270869,2167508510,205.0,213.0,41.0,0,0.758,840.0,70.8,1
270870,2167516511,205.0,211.0,39.0,0,0.747,840.0,70.8,1
270871,2167524511,198.0,208.0,37.0,0,0.735,840.0,70.8,1
270872,2167532511,196.0,205.0,34.0,0,0.77,840.0,70.8,1
270873,2167540511,190.0,201.0,31.0,0,0.749,840.0,70.8,1
270874,2167548511,190.0,199.0,28.0,0,0.726,840.0,70.8,1
270875,2167556512,188.0,196.0,25.0,0,0.703,840.0,70.8,1
270876,2167564511,183.0,193.0,23.0,0,0.632,840.0,70.8,1
270877,2167572514,185.0,191.0,20.0,0,0.661,840.0,70.8,1
270878,2167580512,180.0,188.0,17.0,0,0.635,840.0,70.8,1
270879,2167588512,180.0,186.0,15.0,0,0.564,840.0,70.8,1
270880,2167596511,181.0,185.0,13.0,0,0.546,840.0,70.8,1
270881,2167604511,176.0,183.0,10.0,0,0.574,840.0,70.8,1
270882,2167612511,177.0,181.0,8.0,0,0.503,840.0,70.8,1
270883,2167620511,174.0,180.0,6.0,0,0.487,840.0,70.8,1
270884,2167628511,172.0,178.0,5.0,0,0.414,840.0,70.8,1
270885,2167636511,175.0,177.0,3.0,0,0.463,840.0,70.8,1
270886,2167644511,170.0,175.0,1.0,0,0.448,840.0,70.8,1
270887,2167652511,172.0,175.0,0.0,0,0.376,840.0,70.8,1
270888,2167660511,169.0,173.0,-1.0,0,0.384,840.0,70.8,1
270889,2167668511,168.0,172.0,-3.0,0,0.464,840.0,70.8,1
270890,2167676512,169.0,171.0,-4.0,0,0.407,840.0,70.8,1
270891,2167684511,165.0,170.0,-5.0,0,0.415,840.0,70.8,1
270892,2167692511,168.0,169.0,-6.0,0,0.423,840.0,70.8,1
270893,2167700511,166.0,169.0,-7.0,0,0.431,840.0,70.8,1
270894,2167708511,166.0,168.0,-8.0,0,0.44,840.0,70.8,1
270895,2167716512,165.0,167.0,-8.0,1,0.375,840.0,70.8,1
270896,2167724512,164.0,166.0,-9.0,0,0.448,840.0,70.8,1
270897,2167732512,167.0,167.0,-10.0,0,0.457,840.0,70.8,1
270898,2167740511,163.0,166.0,-10.0,1,0.392,840.0,70.8,1
270899,2167748511,163.0,165.0,-11.0,0,0.465,840.0,70.8,1
270900,2167756511,165.0,165.0,-11.0,1,0.401,840.0,70.8,1
270901,2167764512,163.0,165.0,-12.0,0,0.473,840.0,70.8,1
270902,2167772511,166.0,165.0,-12.0,1,0.409,840.0,70.8,1
270903,2167780511,161.0,164.0,-12.0,0,0.409,840.0,70.8,1
270904,2167788511,161.0,163.0,-12.0,0,0.408,840.0,70.8,1
270905,2167796511,163.0,163.0,-13.0,0,0.481,851.2,70.8,1
270906,2167804512,160.0,162.0,-13.0,1,0.417,851.2,70.8,1
270907,2167812511,163.0,163.0,-13.0,0,0.416,851.2,70.8,1
270908,2167820512,158.0,161.0,-14.0,0,0.489,851.2,70.8,1
270909,2167828512,157.0,160.0,-14.0,1,0.425,851.2,70.8,1
270910,2167836512,158.0,160.0,-15.0,0,0.498,851.2,70.8,1
270911,2167844512,156.0,159.0,-16.0,0,0.507,851.2,70.8,1
270912,2167852512,157.0,158.0,-16.0,1,0.442,851.2,70.8,1
270913,2167860512,153.0,157.0,-17.0,0,0.515,851.2,70.8,1
270914,2167868515,155.0,157.0,-18.0,0,0.524,851.2,70.8,1
270915,2167876514,156.0,156.0,-18.0,1,0.459,851.2,70.8,1
270916,2167884511,153.0,156.0,-19.0,0,0.532,851.2,70.8,1
270917,2167892511,155.0,155.0,-19.0,1,0.468,851.2,70.8,1
270918,2167900512,155.0,155.0,-19.0,0,0.468,851.2,70.8,1
270919,2167908513,156.0,156.0,-19.0,0,0.468,851.2,70.8,1
270920,2167916512,156.0,156.0,-19.0,0,0.468,851.2,70.8,1
270921,2167924512,153.0,155.0,-19.0,0,0.468,851.2,70.8,1
270922,2167932511,156.0,155.0,-19.0,0,0.468,851.2,70.8,1
270923,2167940512,156.0,155.0,-19.0,0,0.468,851.2,70.8,1
270924,2167948511,156.0,156.0,-19.0,0,0.468,851.2,70.8,1
270925,2167956511,158.0,156.0,-19.0,0,0.468,851.2,70.8,1
270926,2167964510,156.0,156.0,-19.0,0,0.468,851.2,70.8,1
270927,2167972511,160.0,157.0,-18.0,0,0.523,851.2,70.8,1
270928,2167980512,158.0,157.0,-18.0,1,0.459,851.2,70.8,1
270929,2167988512,158.0,157.0,-17.0,0,0.515,851.2,70.8,1
270930,2167996511,161.0,158.0,-17.0,1,0.451,851.2,70.8,1
270931,2168004512,160.0,159.0,-16.0,0,0.506,851.2,70.8,1
270932,2168012511,163.0,160.0,-16.0,1,0.442,851.2,70.8,1
270933,2168020510,162.0,160.0,-15.0,0,0.498,851.2,70.8,1
270934,2168028512,163.0,161.0,-14.0,0,0.489,851.2,70.8,1
270935,2168036512,166.0,162.0,-13.0,0,0.48,851.2,70.8,1
270936,2168044511,163.0,162.0,-13.0,1,0.416,851.2,70.8,1
270937,2168052511,166.0,163.0,-12.0,0,0.472,851.2,70.8,1
270938,2168060511,162.0,163.0,-11.0,0,0.463,851.2,70.8,1
270939,2168068510,163.0,163.0,-11.0,1,0.399,851.2,70.8,1
270940,2168076511,165.0,163.0,-11.0,0,0.399,851.2,70.8,1
270941,2168084512,163.0,163.0,-10.0,0,0.455,851.2,70.8,1
270942,2168092511,164.0,164.0,-10.0,1,0.391,851.2,70.8,1
270943,2168100511,164.0,164.0,-10.0,0,0.391,851.2,70.8,1
270944,2168108512,164.0,164.0,-10.0,0,0.392,854.4,70.8,1
270945,2168116511,166.0,164.0,-9.0,0,0.447,854.4,70.8,1
270946,2168124512,168.0,165.0,-9.0,1,0.384,854.4,70.8,1
270947,2168132511,172.0,167.0,-8.0,0,0.439,854.4,70.8,1
270948,2168140511,174.0,169.0,-7.0,0,0.431,854.4,70.8,1
270949,2168148511,178.0,171.0,-5.0,0,0.48,854.4,70.8,1
270950,2168156511,182.0,174.0,-4.0,0,0.407,854.4,70.8,1
270951,2168164511,182.0,176.0,-2.0,0,0.456,854.4,70.8,1
270952,2168172511,191.0,179.0,1.0,0,0.503,854.4,70.8,1
270953,2168180511,192.0,182.0,3.0,0,0.464,854.4,70.8,1
270954,2168188511,195.0,185.0,6.0,0,0.543,854.4,70.8,1
270955,2168196511,201.0,189.0,9.0,0,0.568,854.4,70.8,1
270956,2168204511,202.0,192.0,12.0,0,0.595,854.4,70.8,1
270957,2168212511,209.0,196.0,15.0,0,0.622,854.4,70.8,1
270958,2168220511,208.0,199.0,18.0,0,0.648,854.4,70.8,1
270959,2168228512,212.0,202.0,21.0,0,0.675,854.4,70.8,1
270960,2168236512,214.0,205.0,24.0,0,0.702,854.4,70.8,1
270961,2168244511,213.0,207.0,27.0,0,0.726,854.4,70.8,1
270962,2168252511,219.0,210.0,29.0,0,0.688,854.4,70.8,1
270963,2168260511,217.0,212.0,32.0,0,0.764,854.4,70.8,1
270964,2168268511,216.0,213.0,33.0,0,0.65,854.4,70.8,1
270965,2168276511,215.0,213.0,35.0,0,0.731,854.4,70.8,1
270966,2168284511,211.0,213.0,36.0,0,0.67,854.4,70.8,1
270967,2168292510,212.0,213.0,36.0,1,0.603,854.4,70.8,1
270968,2168300512,210.0,212.0,36.0,0,0.603,854.4,70.8,1
270969,2168308511,208.0,211.0,36.0,0,0.604,854.4,70.8,1
270970,2168316511,208.0,210.0,35.0,0,0.667,854.4,70.8,1
270971,2168324511,201.0,208.0,34.0,0,0.661,854.4,70.8,1
270972,2168332511,204.0,207.0,33.0,0,0.656,854.4,70.8,1
270973,2168340512,199.0,205.0,32.0,0,0.65,854.4,70.8,1
270974,2168348510,199.0,204.0,30.0,0,0.705,854.4,70.8,1
270975,2168356511,196.0,202.0,29.0,0,0.631,854.4,70.8,1
270976,2168364510,191.0,199.0,27.0,0,0.685,854.4,70.8,1
270977,2168372511,191.0,197.0,25.0,0,0.67,854.4,70.8,1
270978,2168380511,185.0,194.0,22.0,0,0.7,854.4,70.8,1
270979,2168388511,183.0,192.0,20.0,0,0.629,854.4,70.8,1
270980,2168396512,181.0,189.0,18.0,0,0.612,854.4,70.8,1
270981,2168404510,178.0,186.0,15.0,0,0.639,854.4,70.8,1
270982,2168412510,177.0,184.0,13.0,0,0.567,854.4,70.8,1
270983,2168420510,172.0,181.0,10.0,0,0.594,856.0,70.8,1
270984,2168428511,170.0,178.0,7.0,0,0.567,856.0,70.8,1
270985,2168436512,170.0,176.0,5.0,0,0.495,856.0,70.8,1
270986,2168444510,166.0,174.0,2.0,0,0.524,856.0,70.8,1
270987,2168452515,170.0,173.0,0.0,0,0.454,856.0,70.8,1
270988,2168460512,167.0,171.0,-2.0,0,0.458,856.0,70.8,1
270989,2168468511,167.0,170.0,-3.0,0,0.398,856.0,70.8,1
270990,2168476511,168.0,170.0,-4.0,0,0.406,856.0,70.8,1
270991,2168484512,166.0,169.0,-6.0,0,0.492,856.0,70.8,1
270992,2168492511,168.0,169.0,-7.0,0,0.432,856.0,70.8,1
270993,2168500511,166.0,168.0,-7.0,1,0.363,856.0,70.8,1
270994,2168508512,165.0,167.0,-8.0,0,0.441,856.0,70.8,1
270995,2168516511,169.0,168.0,-9.0,0,0.45,856.0,70.8,1
270996,2168524511,165.0,167.0,-9.0,1,0.381,856.0,70.8,1
270997,2168532511,165.0,167.0,-9.0,0,0.381,856.0,70.8,1
270998,2168540512,166.0,166.0,-10.0,0,0.459,856.0,70.8,1
270999,2168548512,163.0,166.0,-10.0,1,0.389,856.0,70.8,1
271000,2168556512,164.0,165.0,-11.0,0,0.468,856.0,70.8,1
271001,2168564511,160.0,164.0,-11.0,1,0.399,856.0,70.8,1
271002,2168572512,164.0,164.0,-12.0,0,0.477,856.0,70.8,1
271003,2168580512,160.0,163.0,-12.0,1,0.408,856.0,70.8,1
271004,2168588511,157.0,162.0,-13.0,0,0.487,856.0,70.8,1
271005,2168596511,159.0,161.0,-14.0,0,0.497,856.0,70.8,1
271006,2168604512,154.0,159.0,-15.0,0,0.506,856.0,70.8,1
271007,2168612511,154.0,158.0,-16.0,0,0.515,856.0,70.8,1
271008,2168620513,151.0,156.0,-17.0,0,0.525,856.0,70.8,1
271009,2168628511,151.0,155.0,-18.0,0,0.534,856.0,70.8,1
271010,2168636511,150.0,154.0,-19.0,0,0.543,856.0,70.8,1
271011,2168644511,147.0,152.0,-20.0,0,0.553,856.0,70.8,1
271012,2168652511,148.0,151.0,-22.0,0,0.64,856.0,70.8,1
271013,2168660511,144.0,149.0,-23.0,0,0.579,856.0,70.8,1
271014,2168668511,144.0,148.0,-24.0,0,0.587,856.0,70.8,1
271015,2168676511,144.0,147.0,-25.0,0,0.596,856.0,70.8,1
271016,2168684511,140.0,145.0,-26.0,0,0.604,856.0,70.8,1
271017,2168692511,141.0,144.0,-27.0,0,0.612,856.0,70.8,1
271018,2168700511,139.0,143.0,-29.0,0,0.696,856.0,70.8,1
271019,2168708511,139.0,142.0,-30.0,0,0.634,856.0,70.8,1
271020,2168716511,142.0,142.0,-30.0,1,0.565,856.0,70.8,1
271021,2168724510,138.0,141.0,-31.0,0,0.641,856.0,70.8,1
271022,2168732511,141.0,141.0,-31.0,1,0.571,848.0,70.8,1
271023,2168740511,140.0,141.0,-32.0,0,0.647,848.0,70.8,1
271024,2168748515,140.0,141.0,-32.0,1,0.578,848.0,70.8,1
271025,2168756512,143.0,141.0,-32.0,0,0.577,848.0,70.8,1
271026,2168764511,142.0,141.0,-32.0,0,0.577,848.0,70.8,1
271027,2168772511,147.0,143.0,-31.0,0,0.638,848.0,70.8,1
271028,2168780511,145.0,143.0,-30.0,0,0.631,848.0,70.8,1
271029,2168788511,145.0,144.0,-30.0,1,0.561,840.8,71.5,1
271030,2168796511,148.0,145.0,-29.0,0,0.623,840.8,71.5,1
271031,2168804512,145.0,145.0,-28.0,0,0.615,840.8,71.5,1
271032,2168812512,149.0,146.0,-28.0,1,0.546,840.8,71.5,1
271033,2168820511,148.0,146.0,-27.0,0,0.607,840.8,71.5,1
271034,2168828511,149.0,147.0,-26.0,0,0.598,840.8,71.5,1
271035,2168836512,153.0,148.0,-25.0,0,0.59,840.8,71.5,1
271036,2168844511,151.0,149.0,-24.0,0,0.582,840.8,71.5,1
271037,2168852511,156.0,151.0,-23.0,0,0.573,840.8,71.5,1
271038,2168860511,155.0,152.0,-22.0,0,0.564,840.8,71.5,1
271039,2168868512,156.0,153.0,-21.0,0,0.556,840.8,71.5,1
271040,2168876511,156.0,154.0,-20.0,0,0.547,840.8,71.5,1
271041,2168884511,155.0,154.0,-19.0,0,0.538,840.8,71.5,1
271042,2168892511,160.0,155.0,-18.0,0,0.528,840.8,71.5,1
271043,2168900512,159.0,156.0,-16.0,0,0.579,840.8,71.5,1
271044,2168908512,160.0,157.0,-15.0,0,0.501,840.8,71.5,1
271045,2168916512,163.0,159.0,-14.0,0,0.492,840.8,71.5,1
271046,2168924511,164.0,160.0,-13.0,0,0.482,840.8,71.5,1
271047,2168932511,169.0,162.0,-12.0,0,0.473,840.8,71.5,1
271048,2168940511,172.0,165.0,-10.0,0,0.524,840.8,71.5,1
271049,2168948512,176.0,167.0,-8.0,0,0.506,840.8,71.5,1
271050,2168956511,180.0,170.0,-5.0,0,0.534,840.8,71.5,1
271051,2168964510,181.0,173.0,-3.0,0,0.463,840.8,71.5,1
271052,2168972513,189.0,177.0,0.0,0,0.513,840.8,71.5,1
271053,2168980511,191.0,180.0,3.0,0,0.537,840.8,71.5,1
271054,2168988511,196.0,184.0,6.0,0,0.563,840.8,71.5,1
271055,2168996511,203.0,189.0,10.0,0,0.634,840.8,71.5,1
271056,2169004511,204.0,192.0,13.0,0,0.625,840.8,71.5,1
271057,2169012511,209.0,196.0,17.0,0,0.697,840.8,71.5,1
271058,2169020511,211.0,200.0,20.0,0,0.686,840.8,71.5,1
271059,2169028511,213.0,203.0,24.0,0,0.756,840.8,71.5,1
271060,2169036511,218.0,207.0,27.0,0,0.742,840.8,71.5,1
271061,2169044511,216.0,209.0,30.0,0,0.764,839.2,71.5,1
271062,2169052513,223.0,212.0,33.0,0,0.783,839.2,71.5,1
271063,2169060511,223.0,215.0,36.0,0,0.801,839.2,71.5,1
271064,2169068511,223.0,217.0,39.0,0,0.818,839.2,71.5,1
271065,2169076512,225.0,219.0,41.0,0,0.773,839.2,71.5,1
271066,2169084513,222.0,220.0,42.0,0,0.71,839.2,71.5,1
271067,2169092511,228.0,222.0,44.0,0,0.787,839.2,71.5,1
271068,2169100511,224.0,222.0,46.0,0,0.795,839.2,71.5,1
271069,2169108511,224.0,223.0,46.0,1,0.658,839.2,71.5,1
271070,2169116512,225.0,223.0,47.0,0,0.73,839.2,71.5,1
271071,2169124511,220.0,222.0,47.0,1,0.661,839.2,71.5,1
271072,2169132512,223.0,223.0,48.0,0,0.733,839.2,71.5,1
271073,2169140512,218.0,221.0,47.0,1,0.729,839.2,71.5,1
271074,2169148511,214.0,220.0,46.0,0,0.725,839.2,71.5,1
271075,2169156510,212.0,218.0,45.0,0,0.721,839.2,71.5,1
271076,2169164512,208.0,215.0,44.0,0,0.716,839.2,71.5,1
271077,2169172515,209.0,214.0,42.0,0,0.776,839.2,71.5,1
271078,2169180511,203.0,211.0,40.0,0,0.766,839.2,71.5,1
271079,2169188511,200.0,209.0,38.0,0,0.755,839.2,71.5,1
271080,2169196511,199.0,206.0,35.0,0,0.792,839.2,71.5,1
271081,2169204511,192.0,203.0,33.0,0,0.725,839.2,71.5,1
271082,2169212510,193.0,200.0,30.0,0,0.759,839.2,71.5,1
271083,2169220512,188.0,197.0,27.0,0,0.737,839.2,71.5,1
271084,2169228511,188.0,195.0,24.0,0,0.713,839.2,71.5,1
271085,2169236511,188.0,193.0,22.0,0,0.643,839.2,71.5,1
271086,2169244511,182.0,191.0,19.0,0,0.671,839.2,71.5,1
271087,2169252511,184.0,189.0,17.0,0,0.599,839.2,71.5,1
271088,2169260511,183.0,188.0,15.0,0,0.582,839.2,71.5,1
271089,2169268511,181.0,186.0,13.0,0,0.564,839.2,71.5,1
271090,2169276512,183.0,185.0,11.0,0,0.546,839.2,71.5,1
271091,2169284511,180.0,184.0,10.0,0,0.469,839.2,71.5,1
271092,2169292511,181.0,183.0,9.0,0,0.46,839.2,71.5,1
271093,2169300511,179.0,182.0,7.0,0,0.512,839.2,71.5,1
271094,2169308512,177.0,181.0,6.0,0,0.434,839.2,71.5,1
271095,2169316511,177.0,180.0,5.0,0,0.426,839.2,71.5,1
271096,2169324510,172.0,178.0,4.0,0,0.417,839.2,71.5,1
271097,2169332515,173.0,177.0,2.0,0,0.47,839.2,71.5,1
271098,2169340511,168.0,175.0,1.0,0,0.393,839.2,71.5,1
271099,2169348511,166.0,173.0,-1.0,0,0.455,839.2,71.5,1
271100,2169356510,167.0,171.0,-3.0,0,0.471,834.4,71.5,1
271101,2169364511,162.0,169.0,-4.0,0,0.41,834.4,71.5,1
271102,2169372511,164.0,168.0,-6.0,0,0.497,834.4,71.5,1
271103,2169380511,160.0,166.0,-8.0,0,0.514,834.4,71.5,1
271104,2169388511,160.0,164.0,-9.0,0,0.453,834.4,71.5,1
271105,2169396511,161.0,164.0,-11.0,0,0.541,834.4,71.5,1
271106,2169404511,159.0,163.0,-12.0,0,0.481,834.4,71.5,1
271107,2169412512,157.0,161.0,-13.0,0,0.49,834.4,71.5,1
271108,2169420511,156.0,160.0,-14.0,0,0.499,834.4,71.5,1
271109,2169428511,155.0,159.0,-15.0,0,0.509,834.4,71.5,1
271110,2169436512,156.0,158.0,-16.0,0,0.518,834.4,71.5,1
271111,2169444511,152.0,157.0,-17.0,0,0.527,834.4,71.5,1
271112,2169452511,153.0,156.0,-18.0,0,0.537,834.4,71.5,1
271113,2169460510,151.0,155.0,-19.0,0,0.546,834.4,71.5,1
271114,2169468512,149.0,153.0,-20.0,0,0.555,834.4,71.5,1
271115,2169476512,151.0,153.0,-21.0,0,0.564,834.4,71.5,1
271116,2169484510,146.0,151.0,-22.0,0,0.573,834.4,71.5,1
271117,2169492511,149.0,151.0,-23.0,0,0.582,834.4,71.5,1
271118,2169500511,146.0,149.0,-24.0,0,0.59,834.4,71.5,1
271119,2169508511,145.0,148.0,-25.0,0,0.598,834.4,71.5,1
271120,2169516511,147.0,148.0,-26.0,0,0.607,834.4,71.5,1
271121,2169524511,144.0,147.0,-26.0,1,0.538,834.4,71.5,1
271122,2169532511,146.0,147.0,-27.0,0,0.615,834.4,71.5,1
271123,2169540511,143.0,146.0,-27.0,1,0.546,834.4,71.5,1
271124,2169548511,146.0,146.0,-28.0,0,0.623,834.4,71.5,1
271125,2169556511,148.0,146.0,-28.0,1,0.554,834.4,71.5,1
271126,2169564511,145.0,146.0,-28.0,0,0.554,834.4,71.5,1
271127,2169572511,146.0,146.0,-28.0,0,0.554,834.4,71.5,1
271128,2169580511,144.0,146.0,-28.0,0,0.554,834.4,71.5,1
271129,2169588511,143.0,145.0,-28.0,0,0.554,834.4,71.5,1
271130,2169596511,145.0,145.0,-28.0,0,0.554,834.4,71.5,1
271131,2169604511,144.0,145.0,-28.0,0,0.554,834.4,71.5,1
271132,2169612511,147.0,145.0,-28.0,0,0.555,834.4,71.5,1
271133,2169620511,145.0,145.0,-28.0,0,0.555,834.4,71.5,1
271134,2169628513,148.0,146.0,-28.0,0,0.555,834.4,71.5,1
271135,2169636511,148.0,146.0,-27.0,0,0.616,834.4,71.5,1
271136,2169644511,147.0,147.0,-27.0,1,0.547,834.4,71.5,1
271137,2169652511,152.0,148.0,-26.0,0,0.608,834.4,71.5,1
271138,2169660511,151.0,149.0,-25.0,0,0.6,834.4,71.5,1
271139,2169668511,152.0,149.0,-24.0,0,0.592,837.6,71.5,1
271140,2169676511,154.0,151.0,-24.0,1,0.523,837.6,71.5,1
271141,2169684512,151.0,151.0,-23.0,0,0.584,837.6,71.5,1
271142,2169692512,155.0,152.0,-22.0,0,0.575,837.6,71.5,1
271143,2169700512,154.0,152.0,-21.0,0,0.566,837.6,71.5,1
271144,2169708511,153.0,152.0,-20.0,0,0.557,837.6,71.5,1
271145,2169716511,156.0,153.0,-20.0,1,0.488,837.6,71.5,1
271146,2169724512,156.0,154.0,-19.0,0,0.548,837.6,71.5,1
271147,2169732511,161.0,156.0,-18.0,0,0.539,837.6,71.5,1
271148,2169740512,159.0,156.0,-17.0,0,0.53,837.6,71.5,1
271149,2169748510,158.0,157.0,-16.0,0,0.521,837.6,71.5,1
271150,2169756510,163.0,158.0,-15.0,0,0.511,837.6,71.5,1
271151,2169764511,162.0,159.0,-14.0,0,0.502,837.6,71.5,1
271152,2169772511,167.0,161.0,-13.0,0,0.493,837.6,71.5,1
271153,2169780510,167.0,163.0,-11.0,0,0.544,837.6,71.5,1
271154,2169788511,169.0,164.0,-10.0,0,0.465,837.6,71.5,1
271155,2169796511,174.0,167.0,-8.0,0,0.517,837.6,71.5,1
271156,2169804510,176.0,169.0,-6.0,0,0.499,837.6,71.5,1
271157,2169812511,182.0,172.0,-4.0,0,0.482,837.6,71.5,1
271158,2169820511,184.0,175.0,-2.0,0,0.465,837.6,71.5,1
271159,2169828513,188.0,178.0,1.0,0,0.512,837.6,71.5,1
271160,2169836511,194.0,182.0,4.0,0,0.536,837.6,71.5,1
271161,2169844511,196.0,185.0,7.0,0,0.561,837.6,71.5,1
271162,2169852512,203.0,190.0,10.0,0,0.587,837.6,71.5,1
271163,2169860511,207.0,194.0,14.0,0,0.658,837.6,71.5,1
271164,2169868515,211.0,198.0,18.0,0,0.693,837.6,71.5,1
271165,2169876511,217.0,203.0,22.0,0,0.727,837.6,71.5,1
271166,2169884511,217.0,206.0,25.0,0,0.714,837.6,71.5,1
271167,2169892510,224.0,210.0,29.0,0,0.781,837.6,71.5,1
271168,2169900511,223.0,213.0,33.0,0,0.808,837.6,71.5,1
271169,2169908511,224.0,216.0,36.0,0,0.789,837.6,71.5,1
271170,2169916510,229.0,219.0,39.0,0,0.805,837.6,71.5,1
271171,2169924511,224.0,220.0,41.0,0,0.761,837.6,71.5,1
271172,2169932511,229.0,222.0,44.0,0,0.829,837.6,71.5,1
271173,2169940511,228.0,224.0,45.0,0,0.712,837.6,71.5,1
271174,2169948511,225.0,224.0,47.0,0,0.787,837.6,71.5,1
271175,2169956513,228.0,225.0,48.0,0,0.723,837.6,71.5,1
271176,2169964511,221.0,224.0,48.0,1,0.656,837.6,71.5,1
271177,2169972511,222.0,224.0,48.0,0,0.655,837.6,71.5,1
271178,2169980511,218.0,222.0,48.0,0,0.655,839.2,71.5,1
271179,2169988511,216.0,221.0,47.0,0,0.718,839.2,71.5,1
271180,2169996511,213.0,219.0,46.0,0,0.714,839.2,71.5,1
271181,2170004511,209.0,216.0,44.0,0,0.773,839.2,71.5,1
271182,2170012511,210.0,215.0,43.0,0,0.7,839.2,71.5,1
271183,2170020511,206.0,213.0,41.0,0,0.759,839.2,71.5,1
271184,2170028511,203.0,210.0,39.0,0,0.748,839.2,71.5,1
271185,2170036520,201.0,208.0,37.0,0,0.737,839.2,71.5,1
271186,2170044512,198.0,206.0,34.0,0,0.773,839.2,71.5,1
271187,2170052511,196.0,203.0,32.0,0,0.705,839.2,71.5,1
271188,2170060511,192.0,201.0,29.0,0,0.738,839.2,71.5,1
271189,2170068511,187.0,197.0,27.0,0,0.669,839.2,71.5,1
271190,2170076511,185.0,194.0,24.0,0,0.7,839.2,71.5,1
271191,2170084510,179.0,191.0,21.0,0,0.675,839.2,71.5,1
271192,2170092512,180.0,188.0,18.0,0,0.649,839.2,71.5,1
271193,2170100511,175.0,185.0,15.0,0,0.623,839.2,71.5,1
271194,2170108511,171.0,182.0,11.0,0,0.624,839.2,71.5,1
271195,2170116511,170.0,179.0,8.0,0,0.562,839.2,71.5,1
271196,2170124511,164.0,175.0,5.0,0,0.536,839.2,71.5,1
271197,2170132511,165.0,173.0,2.0,0,0.512,839.2,71.5,1
271198,2170140511,161.0,170.0,-1.0,0,0.508,839.2,71.5,1
271199,2170148511,159.0,167.0,-4.0,0,0.532,839.2,71.5,1
271200,2170156511,159.0,165.0,-6.0,0,0.494,839.2,71.5,1
271201,2170164511,155.0,163.0,-9.0,0,0.574,839.2,71.5,1
271202,2170172514,157.0,161.0,-11.0,0,0.537,839.2,71.5,1
271203,2170180511,156.0,160.0,-13.0,0,0.555,839.2,71.5,1
271204,2170188511,156.0,159.0,-14.0,0,0.497,839.2,71.5,1
271205,2170196511,159.0,159.0,-15.0,0,0.505,839.2,71.5,1
271206,2170204511,155.0,158.0,-16.0,0,0.514,839.2,71.5,1
271207,2170212511,157.0,158.0,-17.0,0,0.523,839.2,71.5,1
271208,2170220512,154.0,157.0,-18.0,0,0.531,839.2,71.5,1
271209,2170228511,152.0,156.0,-19.0,0,0.539,839.2,71.5,1
271210,2170236511,155.0,156.0,-19.0,1,0.473,839.2,71.5,1
271211,2170244511,151.0,154.0,-20.0,0,0.547,839.2,71.5,1
271212,2170252511,153.0,154.0,-21.0,0,0.555,839.2,71.5,1
271213,2170260511,152.0,154.0,-21.0,1,0.488,839.2,71.5,1
271214,2170268511,150.0,153.0,-22.0,0,0.563,839.2,71.5,1
271215,2170276511,152.0,153.0,-22.0,1,0.496,839.2,71.5,1
271216,2170284512,148.0,151.0,-23.0,0,0.57,839.2,71.5,1
271217,2170292511,151.0,151.0,-23.0,1,0.503,840.8,71.5,1
271218,2170300511,151.0,151.0,-23.0,0,0.503,840.8,71.5,1
271219,2170308510,152.0,151.0,-23.0,0,0.502,840.8,71.5,1
271220,2170316511,152.0,152.0,-23.0,0,0.502,840.8,71.5,1
271221,2170324511,148.0,151.0,-24.0,0,0.576,840.8,71.5,1
271222,2170332512,151.0,151.0,-24.0,1,0.509,840.8,71.5,1
271223,2170340513,148.0,150.0,-24.0,0,0.508,840.8,71.5,1
271224,2170348512,148.0,150.0,-24.0,0,0.508,840.8,71.5,1
271225,2170356512,149.0,149.0,-24.0,0,0.507,840.8,71.5,1
271226,2170364512,146.0,149.0,-25.0,0,0.581,840.8,71.5,1
271227,2170372512,148.0,148.0,-25.0,1,0.515,840.8,71.5,1
271228,2170380511,147.0,148.0,-25.0,0,0.514,840.8,71.5,1
271229,2170388514,146.0,148.0,-25.0,0,0.514,840.8,71.5,1
271230,2170396511,148.0,148.0,-25.0,0,0.513,840.8,71.5,1
271231,2170404512,146.0,147.0,-26.0,0,0.587,840.8,71.5,1
271232,2170412512,150.0,148.0,-25.0,1,0.578,840.8,71.5,1
271233,2170420511,149.0,148.0,-25.0,1,0.512,840.8,71.5,1
271234,2170428511,148.0,148.0,-25.0,0,0.511,840.8,71.5,1
271235,2170436512,151.0,149.0,-25.0,0,0.511,840.8,71.5,1
271236,2170444513,148.0,149.0,-24.0,0,0.569,840.8,71.5,1
271237,2170452511,153.0,150.0,-24.0,1,0.502,840.8,71.5,1
271238,2170460511,151.0,150.0,-23.0,0,0.56,840.8,71.5,1
271239,2170468511,153.0,151.0,-23.0,1,0.493,840.8,71.5,1
271240,2170476511,157.0,152.0,-22.0,0,0.551,840.8,71.5,1
271241,2170484512,154.0,153.0,-21.0,0,0.542,840.8,71.5,1
271242,2170492511,156.0,153.0,-20.0,0,0.534,840.8,71.5,1
271243,2170500512,154.0,154.0,-19.0,0,0.525,840.8,71.5,1
271244,2170508511,157.0,154.0,-19.0,1,0.459,840.8,71.5,1
271245,2170516511,159.0,156.0,-18.0,0,0.516,840.8,71.5,1
271246,2170524512,157.0,156.0,-17.0,0,0.507,840.8,71.5,1
271247,2170532512,160.0,157.0,-16.0,0,0.499,840.8,71.5,1
271248,2170540513,160.0,158.0,-15.0,0,0.49,840.8,71.5,1
271249,2170548512,158.0,158.0,-15.0,1,0.424,840.8,71.5,1
271250,2170556511,160.0,158.0,-14.0,0,0.481,840.8,71.5,1
271251,2170564511,156.0,158.0,-14.0,1,0.415,840.8,71.5,1
271252,2170572512,160.0,158.0,-13.0,0,0.473,840.8,71.5,1
271253,2170580511,157.0,158.0,-13.0,1,0.407,840.8,71.5,1
271254,2170588512,156.0,157.0,-13.0,0,0.407,840.8,71.5,1
271255,2170596511,159.0,158.0,-13.0,0,0.407,840.8,71.5,1
271256,2170604511,157.0,158.0,-13.0,0,0.407,839.2,71.5,1
271257,2170612512,160.0,158.0,-13.0,0,0.407,839.2,71.5,1
